Tiempo(s)	Amplitud(mm)
# npts=18501
# fs=50.0000 Hz
# duracion=370.0000 s

0.000000	0.000001
0.020000	0.000000
0.040000	0.000001
0.060000	0.000002
0.080000	0.000004
0.100000	0.000007
0.120000	0.000011
0.140000	0.000016
0.160000	0.000023
0.180000	0.000030
0.200000	0.000039
0.220000	0.000048
0.240000	0.000059
0.260000	0.000070
0.280000	0.000083
0.300000	0.000095
0.320000	0.000109
0.340000	0.000123
0.360000	0.000138
0.380000	0.000153
0.400000	0.000169
0.420000	0.000184
0.440000	0.000201
0.460000	0.000217
0.480000	0.000234
0.500000	0.000250
0.520000	0.000267
0.540000	0.000283
0.560000	0.000301
0.580000	0.000317
0.600000	0.000335
0.620000	0.000351
0.640000	0.000368
0.660000	0.000384
0.680000	0.000402
0.700000	0.000418
0.720000	0.000435
0.740000	0.000451
0.760000	0.000468
0.780000	0.000484
0.800000	0.000501
0.820000	0.000517
0.840000	0.000534
0.860000	0.000549
0.880000	0.000566
0.900000	0.000581
0.920000	0.000598
0.940000	0.000613
0.960000	0.000630
0.980000	0.000645
1.000000	0.000661
1.020000	0.000676
1.040000	0.000692
1.060000	0.000707
1.080000	0.000723
1.100000	0.000738
1.120000	0.000753
1.140000	0.000768
1.160000	0.000783
1.180000	0.000798
1.200000	0.000813
1.220000	0.000827
1.240000	0.000843
1.260000	0.000857
1.280000	0.000873
1.300000	0.000886
1.320000	0.000901
1.340000	0.000915
1.360000	0.000930
1.380000	0.000943
1.400000	0.000958
1.420000	0.000971
1.440000	0.000986
1.460000	0.000999
1.480000	0.001013
1.500000	0.001026
1.520000	0.001040
1.540000	0.001053
1.560000	0.001068
1.580000	0.001081
1.600000	0.001094
1.620000	0.001106
1.640000	0.001118
1.660000	0.001131
1.680000	0.001145
1.700000	0.001157
1.720000	0.001171
1.740000	0.001181
1.760000	0.001193
1.780000	0.001205
1.800000	0.001217
1.820000	0.001230
1.840000	0.001241
1.860000	0.001252
1.880000	0.001265
1.900000	0.001276
1.920000	0.001287
1.940000	0.001296
1.960000	0.001307
1.980000	0.001318
2.000000	0.001328
2.020000	0.001337
2.040000	0.001346
2.060000	0.001355
2.080000	0.001368
2.100000	0.001377
2.120000	0.001389
2.140000	0.001400
2.160000	0.001412
2.180000	0.001418
2.200000	0.001420
2.220000	0.001430
2.240000	0.001442
2.260000	0.001455
2.280000	0.001463
2.300000	0.001465
2.320000	0.001475
2.340000	0.001481
2.360000	0.001488
2.380000	0.001493
2.400000	0.001501
2.420000	0.001516
2.440000	0.001529
2.460000	0.001530
2.480000	0.001533
2.500000	0.001539
2.520000	0.001543
2.540000	0.001546
2.560000	0.001551
2.580000	0.001560
2.600000	0.001571
2.620000	0.001584
2.640000	0.001584
2.660000	0.001580
2.680000	0.001600
2.700000	0.001603
2.720000	0.001603
2.740000	0.001609
2.760000	0.001605
2.780000	0.001613
2.800000	0.001616
2.820000	0.001609
2.840000	0.001623
2.860000	0.001644
2.880000	0.001644
2.900000	0.001632
2.920000	0.001629
2.940000	0.001633
2.960000	0.001648
2.980000	0.001646
3.000000	0.001644
3.020000	0.001640
3.040000	0.001617
3.060000	0.001638
3.080000	0.001662
3.100000	0.001667
3.120000	0.001687
3.140000	0.001687
3.160000	0.001700
3.180000	0.001695
3.200000	0.001672
3.220000	0.001681
3.240000	0.001711
3.260000	0.001719
3.280000	0.001712
3.300000	0.001680
3.320000	0.001679
3.340000	0.001738
3.360000	0.001740
3.380000	0.001711
3.400000	0.001673
3.420000	0.001669
3.440000	0.001741
3.460000	0.001773
3.480000	0.001809
3.500000	0.001827
3.520000	0.001799
3.540000	0.001775
3.560000	0.001748
3.580000	0.001751
3.600000	0.001810
3.620000	0.001823
3.640000	0.001756
3.660000	0.001687
3.680000	0.001662
3.700000	0.001716
3.720000	0.001818
3.740000	0.001858
3.760000	0.001836
3.780000	0.001848
3.800000	0.001872
3.820000	0.001852
3.840000	0.001739
3.860000	0.001634
3.880000	0.001716
3.900000	0.001857
3.920000	0.001965
3.940000	0.001990
3.960000	0.001809
3.980000	0.001561
4.000000	0.001590
4.020000	0.001740
4.040000	0.001860
4.060000	0.001918
4.080000	0.001746
4.100000	0.001712
4.120000	0.001806
4.140000	0.001756
4.160000	0.001733
4.180000	0.001702
4.200000	0.001682
4.220000	0.001768
4.240000	0.001704
4.260000	0.001497
4.280000	0.001473
4.300000	0.001654
4.320000	0.001843
4.340000	0.001797
4.360000	0.001643
4.380000	0.001614
4.400000	0.001674
4.420000	0.001575
4.440000	0.001549
4.460000	0.001780
4.480000	0.001781
4.500000	0.001721
4.520000	0.001687
4.540000	0.001396
4.560000	0.001337
4.580000	0.001709
4.600000	0.001888
4.620000	0.001892
4.640000	0.001655
4.660000	0.001297
4.680000	0.001493
4.700000	0.001503
4.720000	0.001396
4.740000	0.001663
4.760000	0.001658
4.780000	0.001585
4.800000	0.001646
4.820000	0.001587
4.840000	0.001454
4.860000	0.001519
4.880000	0.001807
4.900000	0.001952
4.920000	0.001892
4.940000	0.001747
4.960000	0.001738
4.980000	0.001706
5.000000	0.001494
5.020000	0.001520
5.040000	0.001643
5.060000	0.001753
5.080000	0.001991
5.100000	0.001849
5.120000	0.001501
5.140000	0.001583
5.160000	0.001809
5.180000	0.001936
5.200000	0.001871
5.220000	0.001840
5.240000	0.001955
5.260000	0.001779
5.280000	0.001565
5.300000	0.001410
5.320000	0.001568
5.340000	0.001935
5.360000	0.002016
5.380000	0.001927
5.400000	0.001525
5.420000	0.001230
5.440000	0.001440
5.460000	0.001856
5.480000	0.001662
5.500000	0.001350
5.520000	0.002096
5.540000	0.002251
5.560000	0.001593
5.580000	0.001214
5.600000	0.001076
5.620000	0.001655
5.640000	0.002009
5.660000	0.001701
5.680000	0.001552
5.700000	0.001323
5.720000	0.000854
5.740000	0.000267
5.760000	0.000357
5.780000	0.001408
5.800000	0.001946
5.820000	0.001397
5.840000	0.000611
5.860000	0.000612
5.880000	0.000880
5.900000	0.000476
5.920000	-0.000167
5.940000	-0.000424
5.960000	0.000327
5.980000	0.001041
6.000000	0.000869
6.020000	0.000216
6.040000	-0.000686
6.060000	-0.000106
6.080000	0.000716
6.100000	-0.000158
6.120000	-0.000136
6.140000	-0.000032
6.160000	-0.000949
6.180000	-0.001053
6.200000	-0.000977
6.220000	-0.001051
6.240000	-0.000272
6.260000	-0.000038
6.280000	-0.000344
6.300000	-0.000119
6.320000	-0.002143
6.340000	-0.003197
6.360000	-0.002099
6.380000	-0.002123
6.400000	-0.000266
6.420000	0.000639
6.440000	-0.000226
6.460000	-0.001129
6.480000	-0.002664
6.500000	-0.003012
6.520000	-0.004522
6.540000	-0.004817
6.560000	-0.002083
6.580000	-0.001212
6.600000	-0.002364
6.620000	-0.002449
6.640000	-0.002050
6.660000	-0.001741
6.680000	-0.000402
6.700000	-0.001742
6.720000	-0.004730
6.740000	-0.006269
6.760000	-0.005839
6.780000	-0.003402
6.800000	-0.003793
6.820000	-0.004385
6.840000	-0.003138
6.860000	-0.002410
6.880000	-0.001987
6.900000	-0.004493
6.920000	-0.006650
6.940000	-0.006245
6.960000	-0.004904
6.980000	-0.004212
7.000000	-0.006149
7.020000	-0.007230
7.040000	-0.006080
7.060000	-0.004344
7.080000	-0.004414
7.100000	-0.004211
7.120000	-0.003342
7.140000	-0.004512
7.160000	-0.005812
7.180000	-0.007832
7.200000	-0.007817
7.220000	-0.005189
7.240000	-0.003491
7.260000	-0.005267
7.280000	-0.007404
7.300000	-0.005063
7.320000	-0.004227
7.340000	-0.006129
7.360000	-0.008617
7.380000	-0.009358
7.400000	-0.006429
7.420000	-0.004456
7.440000	-0.004924
7.460000	-0.005686
7.480000	-0.004883
7.500000	-0.005116
7.520000	-0.004236
7.540000	-0.001834
7.560000	-0.002858
7.580000	-0.004182
7.600000	-0.006186
7.620000	-0.006414
7.640000	-0.004117
7.660000	-0.003737
7.680000	-0.003962
7.700000	-0.005711
7.720000	-0.003169
7.740000	0.000373
7.760000	-0.003096
7.780000	-0.005212
7.800000	-0.004654
7.820000	-0.002547
7.840000	-0.000978
7.860000	-0.004431
7.880000	-0.006489
7.900000	-0.004944
7.920000	-0.003106
7.940000	-0.002309
7.960000	-0.003495
7.980000	-0.002611
8.000000	0.002037
8.020000	0.003006
8.040000	-0.001051
8.060000	-0.002241
8.080000	-0.000362
8.100000	0.000466
8.120000	-0.000256
8.140000	-0.001724
8.160000	-0.001008
8.180000	0.001129
8.200000	-0.000247
8.220000	-0.004617
8.240000	-0.005381
8.260000	-0.002143
8.280000	-0.000898
8.300000	-0.002099
8.320000	-0.002425
8.340000	0.000419
8.360000	0.002397
8.380000	0.001022
8.400000	-0.001278
8.420000	-0.003334
8.440000	-0.001581
8.460000	-0.001052
8.480000	-0.003806
8.500000	-0.003612
8.520000	-0.003382
8.540000	-0.004466
8.560000	-0.002632
8.580000	-0.001857
8.600000	-0.005005
8.620000	-0.005293
8.640000	-0.004912
8.660000	-0.005078
8.680000	-0.003409
8.700000	-0.005115
8.720000	-0.006116
8.740000	-0.004955
8.760000	-0.005168
8.780000	-0.004973
8.800000	-0.006812
8.820000	-0.009668
8.840000	-0.008315
8.860000	-0.004542
8.880000	-0.004110
8.900000	-0.007310
8.920000	-0.009705
8.940000	-0.008834
8.960000	-0.007398
8.980000	-0.007310
9.000000	-0.005069
9.020000	-0.002719
9.040000	-0.003014
9.060000	-0.005626
9.080000	-0.010771
9.100000	-0.012805
9.120000	-0.011338
9.140000	-0.009799
9.160000	-0.005717
9.180000	-0.002452
9.200000	-0.002309
9.220000	-0.002800
9.240000	-0.006457
9.260000	-0.009970
9.280000	-0.008781
9.300000	-0.006368
9.320000	-0.004682
9.340000	-0.004484
9.360000	-0.005093
9.380000	-0.005410
9.400000	-0.006650
9.420000	-0.007228
9.440000	-0.006778
9.460000	-0.006185
9.480000	-0.005552
9.500000	-0.003543
9.520000	-0.001735
9.540000	-0.002690
9.560000	-0.003947
9.580000	-0.005047
9.600000	-0.004015
9.620000	-0.002695
9.640000	-0.002595
9.660000	-0.004100
9.680000	-0.005136
9.700000	-0.001694
9.720000	-0.001262
9.740000	-0.002627
9.760000	-0.002479
9.780000	-0.001296
9.800000	0.001952
9.820000	0.001085
9.840000	-0.001022
9.860000	-0.000419
9.880000	-0.000011
9.900000	0.004376
9.920000	0.011914
9.940000	0.019421
9.960000	0.030780
9.980000	0.038156
10.000000	0.046059
10.020000	0.074549
10.040000	0.142462
10.060000	0.236223
10.080000	0.293539
10.100000	0.277982
10.120000	0.227134
10.140000	0.245201
10.160000	0.432777
10.180000	0.805028
10.200000	1.184538
10.220000	1.228787
10.240000	0.739347
10.260000	-0.134336
10.280000	-1.104979
10.300000	-1.891536
10.320000	-2.252179
10.340000	-2.205974
10.360000	-1.863840
10.380000	-1.170606
10.400000	0.085150
10.420000	1.698218
10.440000	2.666006
10.460000	2.173375
10.480000	0.722589
10.500000	-0.492085
10.520000	-1.154982
10.540000	-1.253771
10.560000	-0.559453
10.580000	0.366688
10.600000	0.345939
10.620000	-0.806762
10.640000	-1.710586
10.660000	-1.589060
10.680000	-1.190339
10.700000	-0.838718
10.720000	0.367851
10.740000	1.836943
10.760000	0.960492
10.780000	-1.728719
10.800000	-2.333679
10.820000	0.187492
10.840000	3.444424
10.860000	5.230163
10.880000	4.917304
10.900000	3.555422
10.920000	2.064010
10.940000	0.265258
10.960000	-1.772281
10.980000	-3.145414
11.000000	-3.605588
11.020000	-3.438899
11.040000	-1.535461
11.060000	1.924066
11.080000	3.487558
11.100000	1.118193
11.120000	-2.869807
11.140000	-4.410936
11.160000	-1.515706
11.180000	2.064522
11.200000	1.300022
11.220000	-1.585142
11.240000	-1.940259
11.260000	-0.530105
11.280000	-0.057698
11.300000	-0.834480
11.320000	-0.646516
11.340000	1.803570
11.360000	2.807937
11.380000	0.950041
11.400000	0.388741
11.420000	2.144991
11.440000	4.035808
11.460000	4.543732
11.480000	3.713606
11.500000	2.258821
11.520000	0.343643
11.540000	-1.007756
11.560000	-2.403781
11.580000	-4.725713
11.600000	-6.588570
11.620000	-6.798388
11.640000	-3.842330
11.660000	0.423977
11.680000	1.714970
11.700000	0.437520
11.720000	-1.144899
11.740000	-2.141700
11.760000	-0.809924
11.780000	2.113237
11.800000	2.607721
11.820000	0.449442
11.840000	-1.670867
11.860000	-2.289915
11.880000	-1.231505
11.900000	0.905717
11.920000	3.715603
11.940000	6.132875
11.960000	5.816649
11.980000	2.520022
12.000000	-1.093547
12.020000	-2.847388
12.040000	-2.031558
12.060000	0.014158
12.080000	1.528487
12.100000	2.454887
12.120000	2.472865
12.140000	0.825906
12.160000	-1.516198
12.180000	-3.738791
12.200000	-4.494331
12.220000	-3.042873
12.240000	-1.526754
12.260000	0.060234
12.280000	0.883136
12.300000	-0.168522
12.320000	-1.235612
12.340000	-2.552773
12.360000	-3.515789
12.380000	-1.624632
12.400000	1.391917
12.420000	3.481877
12.440000	5.187012
12.460000	5.268971
12.480000	2.997186
12.500000	-1.221214
12.520000	-4.899268
12.540000	-3.619771
12.560000	1.337530
12.580000	4.613180
12.600000	4.230193
12.620000	1.442479
12.640000	-1.266645
12.660000	-2.152928
12.680000	-1.963588
12.700000	-2.428139
12.720000	-3.467796
12.740000	-3.185380
12.760000	-1.441584
12.780000	0.605488
12.800000	1.135995
12.820000	0.131852
12.840000	0.045961
12.860000	0.621791
12.880000	0.084208
12.900000	-1.002060
12.920000	-0.275245
12.940000	1.018779
12.960000	0.708859
12.980000	0.695960
13.000000	1.868555
13.020000	2.108148
13.040000	0.496071
13.060000	-0.865025
13.080000	-0.397975
13.100000	1.164350
13.120000	1.464886
13.140000	0.121966
13.160000	-0.351448
13.180000	-0.221155
13.200000	-0.877474
13.220000	-0.984880
13.240000	0.893936
13.260000	2.138083
13.280000	-0.361118
13.300000	-4.488463
13.320000	-6.278693
13.340000	-3.365500
13.360000	0.803268
13.380000	1.244447
13.400000	-0.423591
13.420000	-1.797208
13.440000	-1.230904
13.460000	2.058399
13.480000	4.723923
13.500000	4.003179
13.520000	1.562561
13.540000	-0.343331
13.560000	-1.660951
13.580000	-2.089696
13.600000	-1.455994
13.620000	0.010100
13.640000	0.334964
13.660000	-1.351928
13.680000	-1.742112
13.700000	-0.838972
13.720000	-0.435364
13.740000	-0.475859
13.760000	0.187706
13.780000	2.031087
13.800000	2.805962
13.820000	2.634999
13.840000	2.520742
13.860000	2.178878
13.880000	1.783375
13.900000	1.139451
13.920000	1.019811
13.940000	1.803450
13.960000	2.275649
13.980000	2.796352
14.000000	3.307747
14.020000	1.902790
14.040000	-0.215888
14.060000	-1.176826
14.080000	-1.707494
14.100000	-2.466368
14.120000	-3.095842
14.140000	-2.860270
14.160000	-1.558338
14.180000	-0.919187
14.200000	-2.544592
14.220000	-4.054974
14.240000	-3.461872
14.260000	-1.061744
14.280000	1.853771
14.300000	1.772529
14.320000	-1.639949
14.340000	-4.087161
14.360000	-3.112678
14.380000	0.456885
14.400000	3.504459
14.420000	3.735953
14.440000	3.484824
14.460000	4.158962
14.480000	4.433515
14.500000	2.801179
14.520000	-0.301886
14.540000	-1.854545
14.560000	-0.969533
14.580000	1.590451
14.600000	3.874017
14.620000	2.669391
14.640000	-1.140897
14.660000	-2.767784
14.680000	-2.243145
14.700000	-2.793722
14.720000	-3.868988
14.740000	-3.953106
14.760000	-2.995899
14.780000	-1.843163
14.800000	-2.045628
14.820000	-3.557595
14.840000	-4.171795
14.860000	-2.010329
14.880000	2.418015
14.900000	4.456035
14.920000	2.830001
14.940000	0.736229
14.960000	-0.780277
14.980000	-1.196475
15.000000	-0.695394
15.020000	1.060374
15.040000	4.718025
15.060000	7.438817
15.080000	5.674704
15.100000	1.975910
15.120000	0.915655
15.140000	2.714409
15.160000	3.800324
15.180000	1.595386
15.200000	-0.338749
15.220000	0.862137
15.240000	2.183669
15.260000	0.025451
15.280000	-2.987256
15.300000	-3.026299
15.320000	-2.015555
15.340000	-2.627072
15.360000	-3.953976
15.380000	-3.225249
15.400000	-1.798953
15.420000	-3.210221
15.440000	-5.759725
15.460000	-5.185639
15.480000	-1.557542
15.500000	1.105672
15.520000	0.525491
15.540000	-0.328558
15.560000	0.677083
15.580000	1.264299
15.600000	1.223089
15.620000	2.045788
15.640000	3.470577
15.660000	4.603853
15.680000	4.662650
15.700000	3.426772
15.720000	2.471122
15.740000	1.940906
15.760000	0.461800
15.780000	-0.570854
15.800000	-1.034283
15.820000	-2.291127
15.840000	-2.556309
15.860000	-0.830513
15.880000	-0.201467
15.900000	-0.818631
15.920000	-0.142123
15.940000	0.282393
15.960000	0.181625
15.980000	0.658375
16.000000	1.661712
16.020000	3.471421
16.040000	3.552555
16.060000	0.100552
16.080000	-3.811013
16.100000	-4.873186
16.120000	-3.758059
16.140000	-2.226831
16.160000	-0.078002
16.180000	2.586676
16.200000	2.846746
16.220000	-0.058057
16.240000	-4.295318
16.260000	-7.795401
16.280000	-7.546087
16.300000	-4.981005
16.320000	-1.624598
16.340000	2.278882
16.360000	4.455851
16.380000	4.037806
16.400000	1.751254
16.420000	-0.753426
16.440000	-1.821590
16.460000	-0.861263
16.480000	-0.088111
16.500000	0.500853
16.520000	1.396275
16.540000	0.965938
16.560000	0.804527
16.580000	1.137157
16.600000	1.102098
16.620000	1.974027
16.640000	4.314782
16.660000	5.472478
16.680000	3.006390
16.700000	-0.084567
16.720000	-0.428302
16.740000	0.631626
16.760000	0.226651
16.780000	-2.008028
16.800000	-2.811949
16.820000	-1.316189
16.840000	-2.179621
16.860000	-5.804215
16.880000	-7.498587
16.900000	-6.515685
16.920000	-4.384786
16.940000	-1.605134
16.960000	0.650567
16.980000	2.383479
17.000000	3.003718
17.020000	2.826946
17.040000	4.217771
17.060000	4.539393
17.080000	2.348188
17.100000	0.861191
17.120000	0.812621
17.140000	1.765340
17.160000	1.951832
17.180000	0.240369
17.200000	-0.596404
17.220000	-0.346562
17.240000	0.344339
17.260000	0.460449
17.280000	-0.482752
17.300000	-0.930843
17.320000	-3.178822
17.340000	-5.916344
17.360000	-6.635366
17.380000	-6.830544
17.400000	-6.360820
17.420000	-4.828831
17.440000	-3.085227
17.460000	-1.673732
17.480000	-0.892721
17.500000	-1.647069
17.520000	-2.548098
17.540000	-3.229597
17.560000	-4.065473
17.580000	-2.245454
17.600000	1.845701
17.620000	3.683420
17.640000	2.497735
17.660000	3.295615
17.680000	7.997414
17.700000	11.816908
17.720000	11.687544
17.740000	10.064405
17.760000	7.963993
17.780000	3.891107
17.800000	0.269434
17.820000	-1.357121
17.840000	-1.850479
17.860000	-0.331490
17.880000	0.397641
17.900000	-0.548039
17.920000	-0.276966
17.940000	-1.021980
17.960000	-4.946004
17.980000	-8.660698
18.000000	-7.899835
18.020000	-3.431454
18.040000	0.566621
18.060000	1.998056
18.080000	2.228132
18.100000	1.875965
18.120000	1.706636
18.140000	3.535911
18.160000	5.942097
18.180000	6.872366
18.200000	4.496024
18.220000	-0.319935
18.240000	-4.140278
18.260000	-5.541741
18.280000	-4.271651
18.300000	-0.924882
18.320000	3.170148
18.340000	5.841485
18.360000	5.965395
18.380000	4.524764
18.400000	3.429338
18.420000	2.675147
18.440000	0.884737
18.460000	-1.474826
18.480000	-3.316466
18.500000	-3.151165
18.520000	-1.309109
18.540000	-0.670070
18.560000	-1.190021
18.580000	-0.382180
18.600000	0.015365
18.620000	-1.058832
18.640000	-2.625622
18.660000	-4.127382
18.680000	-3.812077
18.700000	-2.800123
18.720000	-1.441856
18.740000	-0.454460
18.760000	0.282233
18.780000	1.810135
18.800000	2.690813
18.820000	3.981246
18.840000	5.062183
18.860000	4.992430
18.880000	5.684021
18.900000	6.471661
18.920000	4.380188
18.940000	0.848539
18.960000	-1.586105
18.980000	-1.577199
19.000000	1.084565
19.020000	2.467327
19.040000	2.455841
19.060000	2.496474
19.080000	2.757180
19.100000	2.341017
19.120000	-0.834301
19.140000	-4.561845
19.160000	-4.896259
19.180000	-2.174134
19.200000	-1.457594
19.220000	-2.985701
19.240000	-4.285299
19.260000	-5.074204
19.280000	-4.631479
19.300000	-4.733208
19.320000	-5.739476
19.340000	-6.036028
19.360000	-5.284964
19.380000	-2.931159
19.400000	-0.396678
19.420000	1.378623
19.440000	4.463612
19.460000	7.748199
19.480000	7.848223
19.500000	4.349591
19.520000	1.924205
19.540000	4.890079
19.560000	8.736014
19.580000	8.991753
19.600000	5.211409
19.620000	0.448860
19.640000	0.052943
19.660000	-0.231592
19.680000	-3.798343
19.700000	-6.899681
19.720000	-7.134567
19.740000	-5.776133
19.760000	-6.455744
19.780000	-6.601121
19.800000	-4.774414
19.820000	-2.949720
19.840000	-0.228653
19.860000	1.565774
19.880000	2.337631
19.900000	2.569072
19.920000	-0.389784
19.940000	-2.793311
19.960000	-3.668043
