Tiempo(s)	Amplitud(mm)
# npts=18501
# fs=50.0000 Hz
# duracion=370.0000 s

0.000000	0.000002
0.020000	0.000001
0.040000	0.000003
0.060000	0.000002
0.080000	0.000004
0.100000	0.000005
0.120000	0.000008
0.140000	0.000010
0.160000	0.000015
0.180000	0.000018
0.200000	0.000024
0.220000	0.000029
0.240000	0.000036
0.260000	0.000042
0.280000	0.000050
0.300000	0.000056
0.320000	0.000065
0.340000	0.000073
0.360000	0.000082
0.380000	0.000090
0.400000	0.000100
0.420000	0.000109
0.440000	0.000119
0.460000	0.000128
0.480000	0.000138
0.500000	0.000147
0.520000	0.000158
0.540000	0.000167
0.560000	0.000178
0.580000	0.000188
0.600000	0.000199
0.620000	0.000208
0.640000	0.000219
0.660000	0.000228
0.680000	0.000239
0.700000	0.000249
0.720000	0.000260
0.740000	0.000269
0.760000	0.000280
0.780000	0.000289
0.800000	0.000300
0.820000	0.000310
0.840000	0.000321
0.860000	0.000330
0.880000	0.000341
0.900000	0.000350
0.920000	0.000361
0.940000	0.000370
0.960000	0.000381
0.980000	0.000390
1.000000	0.000401
1.020000	0.000410
1.040000	0.000421
1.060000	0.000430
1.080000	0.000440
1.100000	0.000449
1.120000	0.000460
1.140000	0.000469
1.160000	0.000480
1.180000	0.000489
1.200000	0.000500
1.220000	0.000508
1.240000	0.000519
1.260000	0.000528
1.280000	0.000539
1.300000	0.000547
1.320000	0.000558
1.340000	0.000567
1.360000	0.000577
1.380000	0.000586
1.400000	0.000597
1.420000	0.000605
1.440000	0.000616
1.460000	0.000624
1.480000	0.000635
1.500000	0.000644
1.520000	0.000654
1.540000	0.000662
1.560000	0.000673
1.580000	0.000681
1.600000	0.000692
1.620000	0.000700
1.640000	0.000710
1.660000	0.000719
1.680000	0.000729
1.700000	0.000737
1.720000	0.000747
1.740000	0.000756
1.760000	0.000766
1.780000	0.000774
1.800000	0.000784
1.820000	0.000792
1.840000	0.000802
1.860000	0.000810
1.880000	0.000820
1.900000	0.000828
1.920000	0.000838
1.940000	0.000846
1.960000	0.000856
1.980000	0.000864
2.000000	0.000873
2.020000	0.000881
2.040000	0.000891
2.060000	0.000899
2.080000	0.000908
2.100000	0.000916
2.120000	0.000925
2.140000	0.000933
2.160000	0.000942
2.180000	0.000950
2.200000	0.000959
2.220000	0.000967
2.240000	0.000976
2.260000	0.000984
2.280000	0.000993
2.300000	0.001000
2.320000	0.001010
2.340000	0.001017
2.360000	0.001026
2.380000	0.001033
2.400000	0.001042
2.420000	0.001049
2.440000	0.001059
2.460000	0.001066
2.480000	0.001075
2.500000	0.001083
2.520000	0.001092
2.540000	0.001099
2.560000	0.001108
2.580000	0.001115
2.600000	0.001124
2.620000	0.001132
2.640000	0.001140
2.660000	0.001147
2.680000	0.001157
2.700000	0.001164
2.720000	0.001173
2.740000	0.001181
2.760000	0.001190
2.780000	0.001197
2.800000	0.001207
2.820000	0.001213
2.840000	0.001222
2.860000	0.001229
2.880000	0.001238
2.900000	0.001246
2.920000	0.001254
2.940000	0.001262
2.960000	0.001271
2.980000	0.001278
3.000000	0.001287
3.020000	0.001293
3.040000	0.001303
3.060000	0.001309
3.080000	0.001318
3.100000	0.001327
3.120000	0.001336
3.140000	0.001345
3.160000	0.001355
3.180000	0.001363
3.200000	0.001372
3.220000	0.001379
3.240000	0.001388
3.260000	0.001396
3.280000	0.001405
3.300000	0.001411
3.320000	0.001418
3.340000	0.001423
3.360000	0.001432
3.380000	0.001438
3.400000	0.001447
3.420000	0.001454
3.440000	0.001463
3.460000	0.001474
3.480000	0.001481
3.500000	0.001486
3.520000	0.001492
3.540000	0.001493
3.560000	0.001500
3.580000	0.001505
3.600000	0.001509
3.620000	0.001515
3.640000	0.001521
3.660000	0.001523
3.680000	0.001531
3.700000	0.001533
3.720000	0.001535
3.740000	0.001540
3.760000	0.001544
3.780000	0.001546
3.800000	0.001551
3.820000	0.001553
3.840000	0.001561
3.860000	0.001561
3.880000	0.001568
3.900000	0.001577
3.920000	0.001587
3.940000	0.001596
3.960000	0.001604
3.980000	0.001607
4.000000	0.001612
4.020000	0.001618
4.040000	0.001624
4.060000	0.001629
4.080000	0.001630
4.100000	0.001631
4.120000	0.001632
4.140000	0.001625
4.160000	0.001631
4.180000	0.001634
4.200000	0.001637
4.220000	0.001643
4.240000	0.001639
4.260000	0.001632
4.280000	0.001633
4.300000	0.001629
4.320000	0.001634
4.340000	0.001634
4.360000	0.001627
4.380000	0.001620
4.400000	0.001604
4.420000	0.001592
4.440000	0.001585
4.460000	0.001578
4.480000	0.001568
4.500000	0.001552
4.520000	0.001555
4.540000	0.001558
4.560000	0.001562
4.580000	0.001567
4.600000	0.001576
4.620000	0.001572
4.640000	0.001565
4.660000	0.001566
4.680000	0.001574
4.700000	0.001573
4.720000	0.001572
4.740000	0.001581
4.760000	0.001573
4.780000	0.001574
4.800000	0.001587
4.820000	0.001580
4.840000	0.001580
4.860000	0.001579
4.880000	0.001576
4.900000	0.001589
4.920000	0.001591
4.940000	0.001590
4.960000	0.001613
4.980000	0.001626
5.000000	0.001652
5.020000	0.001652
5.040000	0.001651
5.060000	0.001648
5.080000	0.001659
5.100000	0.001697
5.120000	0.001729
5.140000	0.001763
5.160000	0.001784
5.180000	0.001813
5.200000	0.001853
5.220000	0.001867
5.240000	0.001869
5.260000	0.001857
5.280000	0.001867
5.300000	0.001876
5.320000	0.001891
5.340000	0.001887
5.360000	0.001876
5.380000	0.001883
5.400000	0.001893
5.420000	0.001925
5.440000	0.001938
5.460000	0.001936
5.480000	0.001964
5.500000	0.001985
5.520000	0.002019
5.540000	0.002034
5.560000	0.002031
5.580000	0.002059
5.600000	0.002071
5.620000	0.002072
5.640000	0.002070
5.660000	0.002120
5.680000	0.002137
5.700000	0.002114
5.720000	0.002117
5.740000	0.002083
5.760000	0.002092
5.780000	0.002098
5.800000	0.002100
5.820000	0.002097
5.840000	0.002074
5.860000	0.002082
5.880000	0.002098
5.900000	0.002092
5.920000	0.002060
5.940000	0.002039
5.960000	0.002005
5.980000	0.001948
6.000000	0.001907
6.020000	0.001807
6.040000	0.001741
6.060000	0.001685
6.080000	0.001614
6.100000	0.001589
6.120000	0.001562
6.140000	0.001538
6.160000	0.001511
6.180000	0.001471
6.200000	0.001431
6.220000	0.001446
6.240000	0.001450
6.260000	0.001448
6.280000	0.001434
6.300000	0.001337
6.320000	0.001297
6.340000	0.001187
6.360000	0.001054
6.380000	0.000976
6.400000	0.000919
6.420000	0.000910
6.440000	0.000945
6.460000	0.000969
6.480000	0.000907
6.500000	0.000867
6.520000	0.000815
6.540000	0.000681
6.560000	0.000567
6.580000	0.000483
6.600000	0.000394
6.620000	0.000381
6.640000	0.000366
6.660000	0.000290
6.680000	0.000275
6.700000	0.000176
6.720000	0.000101
6.740000	0.000044
6.760000	0.000001
6.780000	0.000034
6.800000	0.000013
6.820000	0.000031
6.840000	0.000035
6.860000	0.000010
6.880000	-0.000070
6.900000	-0.000115
6.920000	-0.000108
6.940000	-0.000225
6.960000	-0.000297
6.980000	-0.000444
7.000000	-0.000545
7.020000	-0.000538
7.040000	-0.000576
7.060000	-0.000602
7.080000	-0.000590
7.100000	-0.000576
7.120000	-0.000587
7.140000	-0.000576
7.160000	-0.000594
7.180000	-0.000646
7.200000	-0.000720
7.220000	-0.000823
7.240000	-0.000903
7.260000	-0.000994
7.280000	-0.001040
7.300000	-0.001052
7.320000	-0.001018
7.340000	-0.001029
7.360000	-0.001047
7.380000	-0.001042
7.400000	-0.001132
7.420000	-0.001205
7.440000	-0.001178
7.460000	-0.001249
7.480000	-0.001294
7.500000	-0.001291
7.520000	-0.001336
7.540000	-0.001305
7.560000	-0.001330
7.580000	-0.001400
7.600000	-0.001419
7.620000	-0.001500
7.640000	-0.001470
7.660000	-0.001592
7.680000	-0.001704
7.700000	-0.001698
7.720000	-0.001777
7.740000	-0.001735
7.760000	-0.001793
7.780000	-0.001754
7.800000	-0.001669
7.820000	-0.001700
7.840000	-0.001672
7.860000	-0.001719
7.880000	-0.001764
7.900000	-0.001766
7.920000	-0.001743
7.940000	-0.001628
7.960000	-0.001444
7.980000	-0.001317
8.000000	-0.001155
8.020000	-0.001172
8.040000	-0.001141
8.060000	-0.001189
8.080000	-0.001401
8.100000	-0.001540
8.120000	-0.001803
8.140000	-0.001786
8.160000	-0.001695
8.180000	-0.001634
8.200000	-0.001361
8.220000	-0.001184
8.240000	-0.000979
8.260000	-0.000902
8.280000	-0.000754
8.300000	-0.000611
8.320000	-0.000618
8.340000	-0.000479
8.360000	-0.000364
8.380000	-0.000203
8.400000	-0.000251
8.420000	-0.000394
8.440000	-0.000306
8.460000	-0.000179
8.480000	-0.000037
8.500000	0.000299
8.520000	0.000416
8.540000	0.000460
8.560000	0.000697
8.580000	0.000730
8.600000	0.000951
8.620000	0.001086
8.640000	0.001167
8.660000	0.001288
8.680000	0.001338
8.700000	0.001500
8.720000	0.001649
8.740000	0.001867
8.760000	0.002052
8.780000	0.002432
8.800000	0.002736
8.820000	0.002810
8.840000	0.003048
8.860000	0.003325
8.880000	0.003813
8.900000	0.004070
8.920000	0.004295
8.940000	0.004604
8.960000	0.004648
8.980000	0.004762
9.000000	0.004993
9.020000	0.005095
9.040000	0.005012
9.060000	0.004954
9.080000	0.005238
9.100000	0.005121
9.120000	0.005074
9.140000	0.005531
9.160000	0.005775
9.180000	0.005837
9.200000	0.005717
9.220000	0.005748
9.240000	0.005640
9.260000	0.005285
9.280000	0.005306
9.300000	0.005208
9.320000	0.005140
9.340000	0.005273
9.360000	0.005420
9.380000	0.005615
9.400000	0.005357
9.420000	0.005391
9.440000	0.005471
9.460000	0.005382
9.480000	0.005678
9.500000	0.005639
9.520000	0.005744
9.540000	0.005930
9.560000	0.005791
9.580000	0.005808
9.600000	0.005406
9.620000	0.005082
9.640000	0.005055
9.660000	0.004906
9.680000	0.004989
9.700000	0.005034
9.720000	0.005347
9.740000	0.005537
9.760000	0.005563
9.780000	0.005681
9.800000	0.005721
9.820000	0.006039
9.840000	0.006087
9.860000	0.005990
9.880000	0.005939
9.900000	0.005718
9.920000	0.005514
9.940000	0.004924
9.960000	0.003978
9.980000	0.002452
10.000000	-0.000162
10.020000	-0.003767
10.040000	-0.009079
10.060000	-0.016506
10.080000	-0.026179
10.100000	-0.038741
10.120000	-0.055480
10.140000	-0.077626
10.160000	-0.104037
10.180000	-0.133311
10.200000	-0.164364
10.220000	-0.196621
10.240000	-0.225044
10.260000	-0.242702
10.280000	-0.239581
10.300000	-0.215892
10.320000	-0.181226
10.340000	-0.141150
10.360000	-0.101959
10.380000	-0.051445
10.400000	0.029364
10.420000	0.143414
10.440000	0.268467
10.460000	0.385436
10.480000	0.491864
10.500000	0.592027
10.520000	0.707420
10.540000	0.835632
10.560000	0.944352
10.580000	1.012655
10.600000	1.050705
10.620000	1.077702
10.640000	1.107532
10.660000	1.122456
10.680000	1.073947
10.700000	1.018105
10.720000	1.041264
10.740000	1.118680
10.760000	1.185338
10.780000	1.118397
10.800000	0.841571
10.820000	0.439098
10.840000	-0.013167
10.860000	-0.598029
10.880000	-1.391082
10.900000	-2.318990
10.920000	-3.218778
10.940000	-3.851250
10.960000	-4.227677
10.980000	-4.573675
11.000000	-4.918774
11.020000	-5.121328
11.040000	-4.936392
11.060000	-3.979619
11.080000	-2.249943
11.100000	-0.441220
11.120000	1.043097
11.140000	2.256067
11.160000	3.319123
11.180000	4.263848
11.200000	4.522570
11.220000	3.786702
11.240000	2.832975
11.260000	2.428731
11.280000	2.499276
11.300000	2.589616
11.320000	2.279954
11.340000	1.621864
11.360000	0.966025
11.380000	0.686571
11.400000	0.977999
11.420000	1.351049
11.440000	1.768215
11.460000	2.022890
11.480000	1.537564
11.500000	0.942745
11.520000	0.500932
11.540000	0.047447
11.560000	-0.488759
11.580000	-1.545835
11.600000	-2.903468
11.620000	-4.093773
11.640000	-4.932681
11.660000	-5.137352
11.680000	-4.788104
11.700000	-4.370898
11.720000	-3.690381
11.740000	-2.582574
11.760000	-1.376763
11.780000	0.025331
11.800000	1.277320
11.820000	1.721894
11.840000	1.677886
11.860000	1.802615
11.880000	2.145722
11.900000	2.052321
11.920000	1.375059
11.940000	1.118166
11.960000	1.391235
11.980000	1.923425
12.000000	2.322123
12.020000	2.202290
12.040000	1.942568
12.060000	1.433499
12.080000	1.312175
12.100000	1.512351
12.120000	1.619355
12.140000	1.792522
12.160000	1.485927
12.180000	0.612786
12.200000	-0.637540
12.220000	-1.918909
12.240000	-3.352116
12.260000	-4.022756
12.280000	-3.783404
12.300000	-3.980457
12.320000	-3.992452
12.340000	-3.072759
12.360000	-1.210928
12.380000	0.348321
12.400000	0.053638
12.420000	-1.292942
12.440000	-1.250857
12.460000	0.348412
12.480000	1.128481
12.500000	1.294362
12.520000	1.546352
12.540000	1.306329
12.560000	0.635206
12.580000	-0.330041
12.600000	-0.579704
12.620000	-0.391267
12.640000	-0.258434
12.660000	0.329177
12.680000	1.120698
12.700000	2.069218
12.720000	2.851105
12.740000	3.491244
12.760000	3.871913
12.780000	3.809930
12.800000	3.267402
12.820000	2.439317
12.840000	1.946440
12.860000	1.721405
12.880000	1.635778
12.900000	1.080494
12.920000	0.269956
12.940000	-0.644121
12.960000	-1.819485
12.980000	-2.539466
13.000000	-3.365848
13.020000	-4.249384
13.040000	-4.446378
13.060000	-3.872899
13.080000	-2.906418
13.100000	-2.412528
13.120000	-1.652110
13.140000	-0.764912
13.160000	-0.568406
13.180000	-0.554151
13.200000	-0.849683
13.220000	-1.316993
13.240000	-2.123209
13.260000	-2.284755
13.280000	-1.172516
13.300000	-0.023145
13.320000	1.009235
13.340000	1.363210
13.360000	1.513051
13.380000	1.935260
13.400000	1.971233
13.420000	1.793430
13.440000	1.487996
13.460000	1.558025
13.480000	1.920289
13.500000	2.049112
13.520000	2.139571
13.540000	2.344792
13.560000	1.957809
13.580000	0.985985
13.600000	0.942777
13.620000	1.048875
13.640000	-0.043199
13.660000	-1.395080
13.680000	-1.523190
13.700000	-0.821870
13.720000	-0.579920
13.740000	-0.148879
13.760000	0.194542
13.780000	0.009025
13.800000	-0.306671
13.820000	-0.371026
13.840000	0.369338
13.860000	0.905381
13.880000	0.268465
13.900000	-1.231041
13.920000	-1.980195
13.940000	-1.999363
13.960000	-2.220939
13.980000	-1.993201
14.000000	-1.493104
14.020000	-1.122896
14.040000	-1.214674
14.060000	-0.918955
14.080000	-0.076134
14.100000	0.240785
14.120000	0.410180
14.140000	0.347220
14.160000	0.355749
14.180000	0.626924
14.200000	0.958222
14.220000	1.802883
14.240000	3.005516
14.260000	3.553085
14.280000	2.967590
14.300000	2.207606
14.320000	1.696009
14.340000	1.145542
14.360000	0.139174
14.380000	-0.819050
14.400000	-1.343334
14.420000	-1.799330
14.440000	-1.806326
14.460000	-1.152728
14.480000	-0.616060
14.500000	-1.640711
14.520000	-2.392265
14.540000	-1.877779
14.560000	-1.786725
14.580000	-1.333553
14.600000	-0.824580
14.620000	-0.770808
14.640000	-0.689577
14.660000	-0.322189
14.680000	-0.052195
14.700000	-0.282424
14.720000	-0.415644
14.740000	-0.721128
14.760000	-0.560137
14.780000	0.263946
14.800000	1.055054
14.820000	0.993373
14.840000	-0.061671
14.860000	-0.444177
14.880000	0.151227
14.900000	0.923280
14.920000	2.374883
14.940000	4.162258
14.960000	4.550235
14.980000	4.274624
15.000000	3.089571
15.020000	1.408877
15.040000	0.463511
15.060000	-0.882016
15.080000	-2.250309
15.100000	-3.008463
15.120000	-1.889385
15.140000	-0.407455
15.160000	-0.197386
15.180000	-0.090886
15.200000	0.234011
15.220000	1.370636
15.240000	1.783659
15.260000	1.207326
15.280000	0.832069
15.300000	0.549737
15.320000	0.399295
15.340000	0.368089
15.360000	0.310927
15.380000	-0.279744
15.400000	-1.105736
15.420000	-1.426086
15.440000	-1.399606
15.460000	-1.699050
15.480000	-1.855370
15.500000	-1.932925
15.520000	-2.318662
15.540000	-2.651657
15.560000	-2.793029
15.580000	-1.943596
15.600000	-0.504272
15.620000	0.622015
15.640000	1.633421
15.660000	2.366165
15.680000	2.461185
15.700000	2.308237
15.720000	1.755203
15.740000	0.764421
15.760000	-0.093418
15.780000	-0.601535
15.800000	-0.035792
15.820000	0.694653
15.840000	0.616716
15.860000	-0.458203
15.880000	-1.990389
15.900000	-2.585579
15.920000	-3.018178
15.940000	-2.969929
15.960000	-1.695131
15.980000	0.209382
16.000000	2.086443
16.020000	3.576774
16.040000	4.516073
16.060000	4.074850
16.080000	3.355146
16.100000	3.202786
16.120000	2.997934
16.140000	2.295451
16.160000	0.813671
16.180000	-0.639330
16.200000	-1.879053
16.220000	-2.710667
16.240000	-3.058658
16.260000	-3.729076
16.280000	-4.227689
16.300000	-4.118747
16.320000	-3.450763
16.340000	-2.160794
16.360000	-0.964258
16.380000	-0.135121
16.400000	0.385362
16.420000	0.093149
16.440000	-1.131414
16.460000	-2.316801
16.480000	-2.998091
16.500000	-3.350553
16.520000	-3.466434
16.540000	-3.345420
16.560000	-2.255719
16.580000	-0.833316
16.600000	0.620877
16.620000	2.414405
16.640000	3.351486
16.660000	3.537650
16.680000	3.966758
16.700000	4.464566
16.720000	3.783009
16.740000	2.561524
16.760000	1.572868
16.780000	0.252891
16.800000	-0.427685
16.820000	-0.391530
16.840000	-0.300994
16.860000	-1.108735
16.880000	-2.439116
16.900000	-2.986534
16.920000	-3.168011
16.940000	-2.493215
16.960000	-1.294698
16.980000	-0.076067
17.000000	1.209605
17.020000	1.517036
17.040000	1.323673
17.060000	1.078901
17.080000	1.047223
17.100000	2.197597
17.120000	3.845872
17.140000	5.205851
17.160000	5.484597
17.180000	3.929375
17.200000	1.700273
17.220000	0.442333
17.240000	0.120974
17.260000	-0.306084
17.280000	-0.405600
17.300000	-0.095510
17.320000	-0.024498
17.340000	-0.566458
17.360000	-2.043085
17.380000	-3.354878
17.400000	-3.672618
17.420000	-3.267657
17.440000	-2.666911
17.460000	-2.602272
17.480000	-2.442018
17.500000	-1.756089
17.520000	-1.522471
17.540000	-0.499549
17.560000	0.967228
17.580000	1.694947
17.600000	2.446688
17.620000	1.407680
17.640000	-1.084729
17.660000	-3.057126
17.680000	-2.994340
17.700000	-0.842690
17.720000	0.979760
17.740000	2.347436
17.760000	2.915773
17.780000	2.589619
17.800000	2.020335
17.820000	1.796803
17.840000	1.800009
17.860000	1.855517
17.880000	2.697008
17.900000	2.693855
17.920000	1.817025
17.940000	0.788868
17.960000	0.012351
17.980000	-0.275721
18.000000	-0.356894
18.020000	-0.380697
18.040000	-1.364069
18.060000	-2.059209
18.080000	-2.609431
18.100000	-2.827359
18.120000	-2.139294
18.140000	-1.712352
18.160000	-1.187261
18.180000	-0.092033
18.200000	1.434615
18.220000	1.680485
18.240000	1.134754
18.260000	0.502893
18.280000	-0.500802
18.300000	-1.221629
18.320000	-2.054249
18.340000	-1.893696
18.360000	-0.035033
18.380000	2.131335
18.400000	2.539008
18.420000	1.841312
18.440000	1.653565
18.460000	1.700334
18.480000	2.150631
18.500000	2.224922
18.520000	1.780493
18.540000	1.089739
18.560000	-0.099473
18.580000	-1.345904
18.600000	-1.667756
18.620000	-1.149360
18.640000	-1.153244
18.660000	-1.200766
18.680000	-1.490380
18.700000	-2.578439
18.720000	-3.745150
18.740000	-4.438175
18.760000	-4.173017
18.780000	-2.813389
18.800000	-0.446721
18.820000	0.941676
18.840000	0.477419
18.860000	0.583622
18.880000	1.688422
18.900000	2.085760
18.920000	2.037152
18.940000	1.849551
18.960000	1.368105
18.980000	1.131325
19.000000	1.010085
19.020000	1.247084
19.040000	1.932444
19.060000	2.857532
19.080000	3.002444
19.100000	2.303265
19.120000	1.302274
19.140000	0.044665
19.160000	-0.369349
19.180000	-0.846418
19.200000	-1.427180
19.220000	-1.596921
19.240000	-1.368067
19.260000	-0.392302
19.280000	0.974284
19.300000	2.348701
19.320000	2.213359
19.340000	0.914227
19.360000	-0.781447
19.380000	-2.033262
19.400000	-2.350667
19.420000	-2.014152
19.440000	-0.773870
19.460000	-0.140545
19.480000	-0.181831
19.500000	-0.857037
19.520000	-1.366698
19.540000	-0.695645
19.560000	0.359558
19.580000	1.708922
19.600000	2.065237
19.620000	1.190977
19.640000	0.744224
19.660000	1.596852
19.680000	2.424032
19.700000	2.336257
19.720000	1.569726
19.740000	0.044131
19.760000	-1.693218
19.780000	-3.233713
19.800000	-3.857027
19.820000	-4.138008
19.840000	-3.792900
19.860000	-2.388076
19.880000	-1.146511
19.900000	-0.559056
19.920000	-0.250772
19.940000	1.254590
19.960000	2.614689
19.980000	2.245658
20.000000	1.576513
20.020000	1.525979
20.040000	1.663214
20.060000	1.812379
