Tiempo(s)	Amplitud(mm)
# npts=18501
# fs=50.0000 Hz
# duracion=370.0000 s

0.000000	-0.000000
0.020000	-0.000000
0.040000	-0.000000
0.060000	-0.000001
0.080000	-0.000001
0.100000	-0.000001
0.120000	-0.000002
0.140000	-0.000002
0.160000	-0.000003
0.180000	-0.000004
0.200000	-0.000005
0.220000	-0.000007
0.240000	-0.000008
0.260000	-0.000009
0.280000	-0.000011
0.300000	-0.000013
0.320000	-0.000015
0.340000	-0.000016
0.360000	-0.000018
0.380000	-0.000020
0.400000	-0.000022
0.420000	-0.000024
0.440000	-0.000026
0.460000	-0.000028
0.480000	-0.000031
0.500000	-0.000033
0.520000	-0.000035
0.540000	-0.000037
0.560000	-0.000039
0.580000	-0.000041
0.600000	-0.000043
0.620000	-0.000045
0.640000	-0.000048
0.660000	-0.000050
0.680000	-0.000052
0.700000	-0.000054
0.720000	-0.000056
0.740000	-0.000058
0.760000	-0.000060
0.780000	-0.000062
0.800000	-0.000064
0.820000	-0.000066
0.840000	-0.000068
0.860000	-0.000070
0.880000	-0.000072
0.900000	-0.000074
0.920000	-0.000076
0.940000	-0.000078
0.960000	-0.000079
0.980000	-0.000081
1.000000	-0.000083
1.020000	-0.000085
1.040000	-0.000087
1.060000	-0.000088
1.080000	-0.000090
1.100000	-0.000092
1.120000	-0.000094
1.140000	-0.000095
1.160000	-0.000097
1.180000	-0.000098
1.200000	-0.000100
1.220000	-0.000102
1.240000	-0.000103
1.260000	-0.000105
1.280000	-0.000106
1.300000	-0.000108
1.320000	-0.000109
1.340000	-0.000111
1.360000	-0.000112
1.380000	-0.000113
1.400000	-0.000115
1.420000	-0.000116
1.440000	-0.000117
1.460000	-0.000119
1.480000	-0.000120
1.500000	-0.000121
1.520000	-0.000122
1.540000	-0.000124
1.560000	-0.000125
1.580000	-0.000126
1.600000	-0.000127
1.620000	-0.000128
1.640000	-0.000129
1.660000	-0.000130
1.680000	-0.000131
1.700000	-0.000132
1.720000	-0.000133
1.740000	-0.000134
1.760000	-0.000135
1.780000	-0.000135
1.800000	-0.000136
1.820000	-0.000137
1.840000	-0.000138
1.860000	-0.000139
1.880000	-0.000140
1.900000	-0.000141
1.920000	-0.000143
1.940000	-0.000143
1.960000	-0.000144
1.980000	-0.000145
2.000000	-0.000146
2.020000	-0.000147
2.040000	-0.000148
2.060000	-0.000149
2.080000	-0.000150
2.100000	-0.000151
2.120000	-0.000152
2.140000	-0.000153
2.160000	-0.000154
2.180000	-0.000155
2.200000	-0.000157
2.220000	-0.000160
2.240000	-0.000163
2.260000	-0.000166
2.280000	-0.000167
2.300000	-0.000169
2.320000	-0.000171
2.340000	-0.000172
2.360000	-0.000174
2.380000	-0.000177
2.400000	-0.000181
2.420000	-0.000185
2.440000	-0.000188
2.460000	-0.000192
2.480000	-0.000196
2.500000	-0.000199
2.520000	-0.000203
2.540000	-0.000208
2.560000	-0.000210
2.580000	-0.000213
2.600000	-0.000217
2.620000	-0.000219
2.640000	-0.000222
2.660000	-0.000225
2.680000	-0.000227
2.700000	-0.000226
2.720000	-0.000226
2.740000	-0.000233
2.760000	-0.000241
2.780000	-0.000250
2.800000	-0.000258
2.820000	-0.000261
2.840000	-0.000264
2.860000	-0.000267
2.880000	-0.000272
2.900000	-0.000275
2.920000	-0.000278
2.940000	-0.000285
2.960000	-0.000291
2.980000	-0.000295
3.000000	-0.000294
3.020000	-0.000291
3.040000	-0.000294
3.060000	-0.000298
3.080000	-0.000306
3.100000	-0.000317
3.120000	-0.000324
3.140000	-0.000334
3.160000	-0.000344
3.180000	-0.000352
3.200000	-0.000359
3.220000	-0.000363
3.240000	-0.000366
3.260000	-0.000368
3.280000	-0.000374
3.300000	-0.000384
3.320000	-0.000387
3.340000	-0.000386
3.360000	-0.000388
3.380000	-0.000389
3.400000	-0.000392
3.420000	-0.000403
3.440000	-0.000400
3.460000	-0.000391
3.480000	-0.000397
3.500000	-0.000403
3.520000	-0.000408
3.540000	-0.000407
3.560000	-0.000409
3.580000	-0.000417
3.600000	-0.000418
3.620000	-0.000430
3.640000	-0.000461
3.660000	-0.000476
3.680000	-0.000477
3.700000	-0.000481
3.720000	-0.000488
3.740000	-0.000507
3.760000	-0.000509
3.780000	-0.000480
3.800000	-0.000461
3.820000	-0.000469
3.840000	-0.000499
3.860000	-0.000516
3.880000	-0.000503
3.900000	-0.000497
3.920000	-0.000505
3.940000	-0.000508
3.960000	-0.000529
3.980000	-0.000550
4.000000	-0.000520
4.020000	-0.000479
4.040000	-0.000475
4.060000	-0.000487
4.080000	-0.000487
4.100000	-0.000486
4.120000	-0.000457
4.140000	-0.000429
4.160000	-0.000424
4.180000	-0.000419
4.200000	-0.000420
4.220000	-0.000414
4.240000	-0.000392
4.260000	-0.000361
4.280000	-0.000352
4.300000	-0.000353
4.320000	-0.000336
4.340000	-0.000301
4.360000	-0.000275
4.380000	-0.000304
4.400000	-0.000336
4.420000	-0.000348
4.440000	-0.000330
4.460000	-0.000286
4.480000	-0.000274
4.500000	-0.000245
4.520000	-0.000205
4.540000	-0.000169
4.560000	-0.000114
4.580000	-0.000104
4.600000	-0.000090
4.620000	-0.000077
4.640000	-0.000107
4.660000	-0.000103
4.680000	-0.000049
4.700000	0.000005
4.720000	-0.000005
4.740000	0.000031
4.760000	0.000102
4.780000	0.000127
4.800000	0.000180
4.820000	0.000217
4.840000	0.000250
4.860000	0.000328
4.880000	0.000421
4.900000	0.000495
4.920000	0.000535
4.940000	0.000547
4.960000	0.000527
4.980000	0.000539
5.000000	0.000538
5.020000	0.000519
5.040000	0.000579
5.060000	0.000641
5.080000	0.000693
5.100000	0.000729
5.120000	0.000731
5.140000	0.000717
5.160000	0.000705
5.180000	0.000766
5.200000	0.000802
5.220000	0.000787
5.240000	0.000830
5.260000	0.000939
5.280000	0.001011
5.300000	0.001014
5.320000	0.000996
5.340000	0.000996
5.360000	0.000996
5.380000	0.000907
5.400000	0.000806
5.420000	0.000740
5.440000	0.000788
5.460000	0.000924
5.480000	0.000975
5.500000	0.001020
5.520000	0.001065
5.540000	0.001046
5.560000	0.000986
5.580000	0.000861
5.600000	0.000715
5.620000	0.000725
5.640000	0.000760
5.660000	0.000738
5.680000	0.000681
5.700000	0.000404
5.720000	0.000152
5.740000	0.000025
5.760000	-0.000040
5.780000	-0.000027
5.800000	-0.000058
5.820000	-0.000034
5.840000	-0.000035
5.860000	-0.000059
5.880000	-0.000153
5.900000	-0.000426
5.920000	-0.000673
5.940000	-0.000806
5.960000	-0.000776
5.980000	-0.000707
6.000000	-0.000627
6.020000	-0.000479
6.040000	-0.000389
6.060000	-0.000270
6.080000	-0.000201
6.100000	-0.000220
6.120000	-0.000209
6.140000	-0.000275
6.160000	-0.000368
6.180000	-0.000568
6.200000	-0.000690
6.220000	-0.000565
6.240000	-0.000490
6.260000	-0.000424
6.280000	-0.000472
6.300000	-0.000596
6.320000	-0.000538
6.340000	-0.000402
6.360000	-0.000368
6.380000	-0.000453
6.400000	-0.000268
6.420000	0.000221
6.440000	0.000565
6.460000	0.000878
6.480000	0.001136
6.500000	0.001180
6.520000	0.001338
6.540000	0.001521
6.560000	0.001576
6.580000	0.001452
6.600000	0.001433
6.620000	0.001677
6.640000	0.001680
6.660000	0.001615
6.680000	0.001597
6.700000	0.001419
6.720000	0.001366
6.740000	0.001704
6.760000	0.001903
6.780000	0.001892
6.800000	0.002188
6.820000	0.002626
6.840000	0.002986
6.860000	0.003038
6.880000	0.003050
6.900000	0.002950
6.920000	0.002754
6.940000	0.002716
6.960000	0.002505
6.980000	0.002538
7.000000	0.002627
7.020000	0.002403
7.040000	0.001916
7.060000	0.001621
7.080000	0.001924
7.100000	0.002035
7.120000	0.001902
7.140000	0.001981
7.160000	0.002123
7.180000	0.002303
7.200000	0.002576
7.220000	0.002916
7.240000	0.003171
7.260000	0.002973
7.280000	0.002745
7.300000	0.002827
7.320000	0.002958
7.340000	0.003189
7.360000	0.003337
7.380000	0.003383
7.400000	0.003439
7.420000	0.003591
7.440000	0.003832
7.460000	0.003882
7.480000	0.004069
7.500000	0.004296
7.520000	0.004452
7.540000	0.005113
7.560000	0.005773
7.580000	0.006625
7.600000	0.007579
7.620000	0.007958
7.640000	0.008161
7.660000	0.007871
7.680000	0.007515
7.700000	0.007516
7.720000	0.007376
7.740000	0.007483
7.760000	0.008095
7.780000	0.008349
7.800000	0.008603
7.820000	0.009341
7.840000	0.009738
7.860000	0.010109
7.880000	0.010258
7.900000	0.010528
7.920000	0.011265
7.940000	0.011874
7.960000	0.012736
7.980000	0.013076
8.000000	0.012725
8.020000	0.011966
8.040000	0.010892
8.060000	0.010528
8.080000	0.010422
8.100000	0.010029
8.120000	0.009670
8.140000	0.009543
8.160000	0.009753
8.180000	0.010135
8.200000	0.010423
8.220000	0.010215
8.240000	0.009914
8.260000	0.009802
8.280000	0.009492
8.300000	0.009319
8.320000	0.009379
8.340000	0.009387
8.360000	0.009317
8.380000	0.009118
8.400000	0.009038
8.420000	0.009137
8.440000	0.009053
8.460000	0.008561
8.480000	0.007755
8.500000	0.007396
8.520000	0.007522
8.540000	0.007346
8.560000	0.006836
8.580000	0.006472
8.600000	0.006577
8.620000	0.006746
8.640000	0.006498
8.660000	0.005871
8.680000	0.005345
8.700000	0.005031
8.720000	0.004866
8.740000	0.004945
8.760000	0.004722
8.780000	0.003995
8.800000	0.003174
8.820000	0.002854
8.840000	0.002900
8.860000	0.003424
8.880000	0.004449
8.900000	0.004710
8.920000	0.004515
8.940000	0.004763
8.960000	0.004787
8.980000	0.004388
9.000000	0.004378
9.020000	0.004434
9.040000	0.004598
9.060000	0.005103
9.080000	0.005160
9.100000	0.005311
9.120000	0.005473
9.140000	0.005011
9.160000	0.004495
9.180000	0.003333
9.200000	0.001976
9.220000	0.001252
9.240000	0.000844
9.260000	0.001503
9.280000	0.002310
9.300000	0.002544
9.320000	0.002354
9.340000	0.001793
9.360000	0.001280
9.380000	0.001384
9.400000	0.002028
9.420000	0.001415
9.440000	0.000898
9.460000	0.000697
9.480000	-0.000005
9.500000	-0.000213
9.520000	-0.000769
9.540000	-0.001511
9.560000	-0.001865
9.580000	-0.002442
9.600000	-0.003499
9.620000	-0.003447
9.640000	-0.002958
9.660000	-0.002791
9.680000	-0.002369
9.700000	-0.002541
9.720000	-0.002455
9.740000	-0.002662
9.760000	-0.003234
9.780000	-0.003437
9.800000	-0.003512
9.820000	-0.003457
9.840000	-0.003478
9.860000	-0.003492
9.880000	-0.003725
9.900000	-0.003190
9.920000	-0.003108
9.940000	-0.003868
9.960000	-0.003703
9.980000	-0.003771
10.000000	-0.003301
10.020000	-0.000847
10.040000	0.003246
10.060000	0.009449
10.080000	0.017862
10.100000	0.029204
10.120000	0.044252
10.140000	0.062133
10.160000	0.083263
10.180000	0.108006
10.200000	0.135677
10.220000	0.165486
10.240000	0.196113
10.260000	0.226278
10.280000	0.255070
10.300000	0.281106
10.320000	0.301620
10.340000	0.315201
10.360000	0.320240
10.380000	0.315220
10.400000	0.298934
10.420000	0.268263
10.440000	0.222315
10.460000	0.162494
10.480000	0.094812
10.500000	0.025934
10.520000	-0.042219
10.540000	-0.109546
10.560000	-0.174948
10.580000	-0.237478
10.600000	-0.296785
10.620000	-0.349430
10.640000	-0.403346
10.660000	-0.461235
10.680000	-0.510816
10.700000	-0.548026
10.720000	-0.568210
10.740000	-0.566444
10.760000	-0.538946
10.780000	-0.497302
10.800000	-0.453275
10.820000	-0.396676
10.840000	-0.329488
10.860000	-0.259447
10.880000	-0.178272
10.900000	-0.081916
10.920000	0.010027
10.940000	0.091807
10.960000	0.173292
10.980000	0.247614
11.000000	0.305401
11.020000	0.354939
11.040000	0.394894
11.060000	0.400520
11.080000	0.377870
11.100000	0.325758
11.120000	0.232864
11.140000	0.115668
11.160000	-0.009214
11.180000	-0.113884
11.200000	-0.199440
11.220000	-0.271128
11.240000	-0.312948
11.260000	-0.354559
11.280000	-0.396211
11.300000	-0.425060
11.320000	-0.472940
11.340000	-0.535458
11.360000	-0.583207
11.380000	-0.578782
11.400000	-0.532408
11.420000	-0.463079
11.440000	-0.348821
11.460000	-0.227326
11.480000	-0.119687
11.500000	-0.016032
11.520000	0.033877
11.540000	0.008591
11.560000	-0.007776
11.580000	0.045683
11.600000	0.127591
11.620000	0.204804
11.640000	0.273069
11.660000	0.267136
11.680000	0.135697
11.700000	-0.087905
11.720000	-0.324609
11.740000	-0.466228
11.760000	-0.462668
11.780000	-0.296297
11.800000	-0.012698
11.820000	0.278779
11.840000	0.462691
11.860000	0.431749
11.880000	0.241607
11.900000	0.092590
11.920000	0.181918
11.940000	0.453922
11.960000	0.694686
11.980000	0.816663
12.000000	0.792474
12.020000	0.630366
12.040000	0.368644
12.060000	0.129027
12.080000	0.070413
12.100000	0.197015
12.120000	0.388150
12.140000	0.492186
12.160000	0.387094
12.180000	0.088865
12.200000	-0.274349
12.220000	-0.546993
12.240000	-0.644479
12.260000	-0.579065
12.280000	-0.405395
12.300000	-0.217426
12.320000	-0.079366
12.340000	0.025813
12.360000	0.194835
12.380000	0.407272
12.400000	0.587194
12.420000	0.758130
12.440000	0.941360
12.460000	1.084308
12.480000	1.086903
12.500000	1.004442
12.520000	0.916352
12.540000	0.809425
12.560000	0.630243
12.580000	0.389875
12.600000	0.163188
12.620000	0.015054
12.640000	-0.020688
12.660000	-0.076253
12.680000	-0.166294
12.700000	-0.223251
12.720000	-0.253415
12.740000	-0.304568
12.760000	-0.544640
12.780000	-0.944410
12.800000	-1.214667
12.820000	-1.187922
12.840000	-0.976022
12.860000	-0.789528
12.880000	-0.700764
12.900000	-0.696942
12.920000	-0.809793
12.940000	-0.921150
12.960000	-0.921142
12.980000	-0.874215
13.000000	-0.712649
13.020000	-0.414770
13.040000	-0.163124
13.060000	0.023403
13.080000	0.159137
13.100000	0.094068
13.120000	-0.061327
13.140000	-0.013775
13.160000	0.235270
13.180000	0.567557
13.200000	0.985374
13.220000	1.271463
13.240000	1.243806
13.260000	1.090316
13.280000	0.869072
13.300000	0.569488
13.320000	0.421292
13.340000	0.442689
13.360000	0.329180
13.380000	0.160975
13.400000	0.093236
13.420000	-0.116758
13.440000	-0.467583
13.460000	-0.808873
13.480000	-1.130152
13.500000	-1.227849
13.520000	-1.034187
13.540000	-0.785413
13.560000	-0.523793
13.580000	-0.291973
13.600000	-0.222319
13.620000	-0.205095
13.640000	-0.025432
13.660000	0.328177
13.680000	0.692601
13.700000	0.969082
13.720000	1.101204
13.740000	1.032231
13.760000	0.851061
13.780000	0.657717
13.800000	0.378237
13.820000	0.146262
13.840000	0.120931
13.860000	0.235330
13.880000	0.372271
13.900000	0.320750
13.920000	0.054228
13.940000	-0.262916
13.960000	-0.502479
13.980000	-0.728344
14.000000	-0.955958
14.020000	-1.034308
14.040000	-0.968443
14.060000	-0.780694
14.080000	-0.486908
14.100000	-0.237411
14.120000	-0.122471
14.140000	0.023456
14.160000	0.304079
14.180000	0.549246
14.200000	0.722293
14.220000	0.930642
14.240000	1.013048
14.260000	0.883900
14.280000	0.719705
14.300000	0.541774
14.320000	0.254045
14.340000	-0.045288
14.360000	-0.159210
14.380000	-0.202119
14.400000	-0.269344
14.420000	-0.428248
14.440000	-0.803330
14.460000	-1.125504
14.480000	-1.169311
14.500000	-1.046833
14.520000	-0.852292
14.540000	-0.652960
14.560000	-0.509000
14.580000	-0.295642
14.600000	0.062126
14.620000	0.443943
14.640000	0.652533
14.660000	0.723189
14.680000	0.747788
14.700000	0.747190
14.720000	0.967685
14.740000	1.313755
14.760000	1.499217
14.780000	1.491398
14.800000	1.406532
14.820000	1.183696
14.840000	0.762819
14.860000	0.489672
14.880000	0.462480
14.900000	0.599382
14.920000	0.774382
14.940000	0.654576
14.960000	0.170189
14.980000	-0.498834
15.000000	-1.140334
15.020000	-1.533202
15.040000	-1.619600
15.060000	-1.555740
15.080000	-1.593612
15.100000	-1.634167
15.120000	-1.526318
15.140000	-1.496837
15.160000	-1.512019
15.180000	-1.453508
15.200000	-1.198284
15.220000	-0.562598
15.240000	0.231177
15.260000	0.784452
15.280000	0.949799
15.300000	0.864899
15.320000	0.787386
15.340000	0.740484
15.360000	0.525276
15.380000	0.352026
15.400000	0.491968
15.420000	0.683773
15.440000	0.622986
15.460000	0.417157
15.480000	0.111910
15.500000	-0.407156
15.520000	-1.061314
15.540000	-1.703004
15.560000	-2.111367
15.580000	-2.248322
15.600000	-2.291501
15.620000	-2.245548
15.640000	-1.953431
15.660000	-1.428486
15.680000	-0.842354
15.700000	-0.336562
15.720000	0.028671
15.740000	0.309597
15.760000	0.545823
15.780000	0.627430
15.800000	0.439198
15.820000	0.255355
15.840000	0.390907
15.860000	0.707350
15.880000	0.941213
15.900000	1.074089
15.920000	1.065816
15.940000	0.816967
15.960000	0.571359
15.980000	0.536665
16.000000	0.719980
16.020000	0.975318
16.040000	0.972131
16.060000	0.857340
16.080000	0.955132
16.100000	1.204980
16.120000	1.479171
16.140000	1.694919
16.160000	1.866779
16.180000	1.909355
16.200000	1.847658
16.220000	1.624889
16.240000	1.093853
16.260000	0.649264
16.280000	0.301366
16.300000	-0.041569
16.320000	-0.164847
16.340000	-0.287502
16.360000	-0.508780
16.380000	-0.751453
16.400000	-0.978283
16.420000	-1.141601
16.440000	-1.236548
16.460000	-1.195705
16.480000	-1.199071
16.500000	-1.217490
16.520000	-0.940701
16.540000	-0.593574
16.560000	-0.389278
16.580000	-0.253706
16.600000	-0.049868
16.620000	0.343750
16.640000	0.753326
16.660000	1.058589
16.680000	1.216158
16.700000	1.254917
16.720000	1.277496
16.740000	1.167132
16.760000	0.904385
16.780000	0.476968
16.800000	-0.061213
16.820000	-0.464205
16.840000	-0.885458
16.860000	-1.441209
16.880000	-1.952964
16.900000	-2.270737
16.920000	-2.267532
16.940000	-2.064738
16.960000	-1.849869
16.980000	-1.710968
17.000000	-1.621902
17.020000	-1.491541
17.040000	-1.243695
17.060000	-0.792011
17.080000	-0.215337
17.100000	0.340271
17.120000	0.808107
17.140000	1.121284
17.160000	1.317459
17.180000	1.583557
17.200000	1.959112
17.220000	2.377733
17.240000	2.660457
17.260000	2.571759
17.280000	2.250665
17.300000	1.828107
17.320000	1.225654
17.340000	0.643804
17.360000	0.301108
17.380000	0.160507
17.400000	0.129780
17.420000	0.032953
17.440000	-0.227002
17.460000	-0.621106
17.480000	-0.878269
17.500000	-0.685251
17.520000	-0.272152
17.540000	0.045120
17.560000	0.198314
17.580000	0.126979
17.600000	-0.106447
17.620000	-0.262497
17.640000	-0.253251
17.660000	-0.115973
17.680000	0.075758
17.700000	0.205144
17.720000	0.288798
17.740000	0.255785
17.760000	-0.017315
17.780000	-0.405589
17.800000	-0.635779
17.820000	-0.598118
17.840000	-0.450967
17.860000	-0.450640
17.880000	-0.633916
17.900000	-0.895824
17.920000	-1.265508
17.940000	-1.639189
17.960000	-1.675679
17.980000	-1.336361
18.000000	-1.016127
18.020000	-0.870650
18.040000	-0.792181
18.060000	-0.733197
18.080000	-0.618074
18.100000	-0.325129
18.120000	0.002605
18.140000	0.072769
18.160000	0.111055
18.180000	0.281408
18.200000	0.343495
18.220000	0.352812
18.240000	0.533349
18.260000	0.874854
18.280000	1.140179
18.300000	1.292350
18.320000	1.507830
18.340000	1.684220
18.360000	1.614875
18.380000	1.402095
18.400000	1.230325
18.420000	1.172451
18.440000	1.185181
18.460000	1.124938
18.480000	0.996094
18.500000	0.686278
18.520000	0.199037
18.540000	-0.271519
18.560000	-0.632772
18.580000	-0.752218
18.600000	-0.704723
18.620000	-0.577056
18.640000	-0.521307
18.660000	-0.607427
18.680000	-0.686805
18.700000	-0.812217
18.720000	-1.002196
18.740000	-1.178175
18.760000	-1.308763
18.780000	-1.427874
18.800000	-1.687664
18.820000	-2.088361
18.840000	-2.415609
18.860000	-2.514298
18.880000	-2.291470
18.900000	-1.826874
18.920000	-1.310369
18.940000	-0.875593
18.960000	-0.455039
18.980000	-0.000930
19.000000	0.296439
19.020000	0.349066
19.040000	0.230795
19.060000	0.087071
19.080000	0.101843
19.100000	0.384505
19.120000	0.543742
19.140000	0.503532
19.160000	0.735779
19.180000	1.192658
19.200000	1.663576
19.220000	2.021684
19.240000	2.226611
19.260000	2.446438
19.280000	2.762865
19.300000	3.042626
19.320000	3.283738
19.340000	3.526628
19.360000	3.557525
19.380000	3.184896
19.400000	2.346838
19.420000	1.057823
19.440000	-0.420131
19.460000	-1.500934
19.480000	-1.869353
19.500000	-1.685428
19.520000	-1.345400
19.540000	-1.177411
19.560000	-1.258021
19.580000	-1.454541
19.600000	-1.482023
19.620000	-1.341932
19.640000	-1.127445
19.660000	-0.857847
19.680000	-0.506660
19.700000	0.004373
19.720000	0.377042
19.740000	0.448730
19.760000	0.538701
19.780000	0.772117
19.800000	1.130011
19.820000	1.478459
19.840000	1.501465
19.860000	1.210204
