Tiempo(s)	Amplitud(mm)
# npts=18501
# fs=50.0000 Hz
# duracion=370.0000 s

0.000000	0.000004
0.020000	0.000004
0.040000	0.000005
0.060000	0.000006
0.080000	0.000009
0.100000	0.000013
0.120000	0.000018
0.140000	0.000026
0.160000	0.000034
0.180000	0.000045
0.200000	0.000056
0.220000	0.000070
0.240000	0.000084
0.260000	0.000100
0.280000	0.000117
0.300000	0.000135
0.320000	0.000154
0.340000	0.000174
0.360000	0.000195
0.380000	0.000216
0.400000	0.000238
0.420000	0.000260
0.440000	0.000283
0.460000	0.000306
0.480000	0.000329
0.500000	0.000353
0.520000	0.000376
0.540000	0.000400
0.560000	0.000424
0.580000	0.000448
0.600000	0.000473
0.620000	0.000497
0.640000	0.000521
0.660000	0.000545
0.680000	0.000570
0.700000	0.000594
0.720000	0.000618
0.740000	0.000642
0.760000	0.000666
0.780000	0.000690
0.800000	0.000714
0.820000	0.000738
0.840000	0.000762
0.860000	0.000786
0.880000	0.000810
0.900000	0.000834
0.920000	0.000858
0.940000	0.000882
0.960000	0.000905
0.980000	0.000929
1.000000	0.000953
1.020000	0.000976
1.040000	0.001000
1.060000	0.001024
1.080000	0.001047
1.100000	0.001070
1.120000	0.001094
1.140000	0.001117
1.160000	0.001140
1.180000	0.001164
1.200000	0.001187
1.220000	0.001210
1.240000	0.001233
1.260000	0.001257
1.280000	0.001279
1.300000	0.001302
1.320000	0.001326
1.340000	0.001348
1.360000	0.001371
1.380000	0.001395
1.400000	0.001417
1.420000	0.001439
1.440000	0.001463
1.460000	0.001485
1.480000	0.001507
1.500000	0.001530
1.520000	0.001554
1.540000	0.001575
1.560000	0.001597
1.580000	0.001621
1.600000	0.001642
1.620000	0.001664
1.640000	0.001689
1.660000	0.001711
1.680000	0.001731
1.700000	0.001755
1.720000	0.001777
1.740000	0.001796
1.760000	0.001819
1.780000	0.001842
1.800000	0.001860
1.820000	0.001880
1.840000	0.001904
1.860000	0.001925
1.880000	0.001942
1.900000	0.001966
1.920000	0.001991
1.940000	0.002008
1.960000	0.002031
1.980000	0.002058
2.000000	0.002073
2.020000	0.002092
2.040000	0.002122
2.060000	0.002140
2.080000	0.002154
2.100000	0.002180
2.120000	0.002200
2.140000	0.002209
2.160000	0.002234
2.180000	0.002260
2.200000	0.002267
2.220000	0.002287
2.240000	0.002320
2.260000	0.002329
2.280000	0.002342
2.300000	0.002379
2.320000	0.002397
2.340000	0.002401
2.360000	0.002436
2.380000	0.002461
2.400000	0.002461
2.420000	0.002490
2.440000	0.002524
2.460000	0.002521
2.480000	0.002532
2.500000	0.002568
2.520000	0.002575
2.540000	0.002585
2.560000	0.002623
2.580000	0.002635
2.600000	0.002629
2.620000	0.002658
2.640000	0.002698
2.660000	0.002693
2.680000	0.002703
2.700000	0.002749
2.720000	0.002749
2.740000	0.002745
2.760000	0.002806
2.780000	0.002827
2.800000	0.002799
2.820000	0.002855
2.840000	0.002890
2.860000	0.002845
2.880000	0.002864
2.900000	0.002911
2.920000	0.002886
2.940000	0.002878
2.960000	0.002934
2.980000	0.002935
3.000000	0.002899
3.020000	0.002947
3.040000	0.002985
3.060000	0.002948
3.080000	0.002989
3.100000	0.003052
3.120000	0.002991
3.140000	0.002999
3.160000	0.003110
3.180000	0.003079
3.200000	0.003053
3.220000	0.003145
3.240000	0.003135
3.260000	0.003078
3.280000	0.003160
3.300000	0.003210
3.320000	0.003133
3.340000	0.003162
3.360000	0.003253
3.380000	0.003184
3.400000	0.003126
3.420000	0.003259
3.440000	0.003271
3.460000	0.003144
3.480000	0.003263
3.500000	0.003359
3.520000	0.003204
3.540000	0.003277
3.560000	0.003444
3.580000	0.003284
3.600000	0.003222
3.620000	0.003405
3.640000	0.003351
3.660000	0.003174
3.680000	0.003322
3.700000	0.003374
3.720000	0.003156
3.740000	0.003278
3.760000	0.003490
3.780000	0.003355
3.800000	0.003387
3.820000	0.003672
3.840000	0.003522
3.860000	0.003317
3.880000	0.003609
3.900000	0.003586
3.920000	0.003286
3.940000	0.003516
3.960000	0.003597
3.980000	0.003315
4.000000	0.003501
4.020000	0.003715
4.040000	0.003504
4.060000	0.003505
4.080000	0.003754
4.100000	0.003707
4.120000	0.003594
4.140000	0.003813
4.160000	0.003952
4.180000	0.003762
4.200000	0.003851
4.220000	0.004160
4.240000	0.003933
4.260000	0.003749
4.280000	0.004167
4.300000	0.004087
4.320000	0.003653
4.340000	0.004018
4.360000	0.004062
4.380000	0.003502
4.400000	0.003742
4.420000	0.004099
4.440000	0.003650
4.460000	0.003698
4.480000	0.004421
4.500000	0.004132
4.520000	0.003811
4.540000	0.004498
4.560000	0.004537
4.580000	0.004057
4.600000	0.004489
4.620000	0.004770
4.640000	0.004038
4.660000	0.004105
4.680000	0.004600
4.700000	0.003885
4.720000	0.003688
4.740000	0.004293
4.760000	0.003933
4.780000	0.003638
4.800000	0.004192
4.820000	0.004293
4.840000	0.003896
4.860000	0.004384
4.880000	0.005045
4.900000	0.004557
4.920000	0.004398
4.940000	0.004995
4.960000	0.004779
4.980000	0.004211
5.000000	0.004816
5.020000	0.004906
5.040000	0.003798
5.060000	0.004308
5.080000	0.004859
5.100000	0.003916
5.120000	0.004006
5.140000	0.004575
5.160000	0.003925
5.180000	0.003445
5.200000	0.004462
5.220000	0.004450
5.240000	0.003446
5.260000	0.004065
5.280000	0.004489
5.300000	0.003553
5.320000	0.003609
5.340000	0.004799
5.360000	0.003856
5.380000	0.003358
5.400000	0.005178
5.420000	0.004179
5.440000	0.002857
5.460000	0.004480
5.480000	0.004308
5.500000	0.002763
5.520000	0.004008
5.540000	0.004614
5.560000	0.002725
5.580000	0.003245
5.600000	0.004582
5.620000	0.003342
5.640000	0.003018
5.660000	0.004087
5.680000	0.003574
5.700000	0.002513
5.720000	0.003343
5.740000	0.003946
5.760000	0.002249
5.780000	0.002227
5.800000	0.003723
5.820000	0.002128
5.840000	0.001305
5.860000	0.003623
5.880000	0.002909
5.900000	0.001351
5.920000	0.003404
5.940000	0.003727
5.960000	0.002049
5.980000	0.003198
6.000000	0.004433
6.020000	0.002246
6.040000	0.002045
6.060000	0.004726
6.080000	0.002635
6.100000	0.000402
6.120000	0.003067
6.140000	0.003123
6.160000	0.000416
6.180000	0.001908
6.200000	0.003834
6.220000	0.000782
6.240000	0.001260
6.260000	0.003410
6.280000	0.000414
6.300000	0.000448
6.320000	0.002755
6.340000	0.001549
6.360000	0.000005
6.380000	0.002331
6.400000	0.003675
6.420000	0.000723
6.440000	0.001711
6.460000	0.003914
6.480000	0.001489
6.500000	0.000880
6.520000	0.003188
6.540000	0.001806
6.560000	-0.000593
6.580000	0.002241
6.600000	0.002811
6.620000	-0.000702
6.640000	0.001386
6.660000	0.003744
6.680000	0.000478
6.700000	0.001284
6.720000	0.004377
6.740000	0.001749
6.760000	0.000496
6.780000	0.003899
6.800000	0.003695
6.820000	0.000060
6.840000	0.002329
6.860000	0.004535
6.880000	-0.000489
6.900000	-0.000194
6.920000	0.003156
6.940000	-0.002336
6.960000	-0.003834
6.980000	0.001876
7.000000	-0.000508
7.020000	-0.003818
7.040000	0.000752
7.060000	0.000837
7.080000	-0.003351
7.100000	0.000234
7.120000	0.003976
7.140000	0.000096
7.160000	0.000220
7.180000	0.003914
7.200000	0.001497
7.220000	0.000336
7.240000	0.004408
7.260000	0.003216
7.280000	-0.001118
7.300000	0.001414
7.320000	0.003550
7.340000	-0.000314
7.360000	0.000128
7.380000	0.004178
7.400000	0.000676
7.420000	-0.001887
7.440000	0.003586
7.460000	0.002492
7.480000	-0.002761
7.500000	0.000894
7.520000	0.002876
7.540000	-0.002452
7.560000	-0.000555
7.580000	0.005756
7.600000	0.001624
7.620000	-0.000995
7.640000	0.005706
7.660000	0.003532
7.680000	-0.001448
7.700000	0.005340
7.720000	0.005051
7.740000	-0.002407
7.760000	0.003293
7.780000	0.007224
7.800000	0.000453
7.820000	0.002882
7.840000	0.009677
7.860000	0.004458
7.880000	0.002036
7.900000	0.007144
7.920000	0.002957
7.940000	-0.001830
7.960000	0.003332
7.980000	0.005077
8.000000	-0.000042
8.020000	0.002220
8.040000	0.007175
8.060000	0.003755
8.080000	0.002574
8.100000	0.008014
8.120000	0.006597
8.140000	0.000878
8.160000	0.006720
8.180000	0.009128
8.200000	0.002296
8.220000	0.006107
8.240000	0.010995
8.260000	0.005161
8.280000	0.003577
8.300000	0.010394
8.320000	0.008154
8.340000	0.001498
8.360000	0.007727
8.380000	0.010527
8.400000	0.001853
8.420000	0.004588
8.440000	0.009061
8.460000	-0.000963
8.480000	-0.001923
8.500000	0.005915
8.520000	-0.000446
8.540000	-0.003913
8.560000	0.005932
8.580000	0.003561
8.600000	-0.001315
8.620000	0.007757
8.640000	0.008972
8.660000	0.001006
8.680000	0.003510
8.700000	0.008204
8.720000	0.002765
8.740000	0.001902
8.760000	0.007311
8.780000	0.004586
8.800000	0.000603
8.820000	0.006220
8.840000	0.008017
8.860000	0.000974
8.880000	0.004401
8.900000	0.008446
8.920000	0.000908
8.940000	0.002234
8.960000	0.008676
8.980000	0.002862
9.000000	-0.002820
9.020000	0.003364
9.040000	0.002194
9.060000	-0.008406
9.080000	-0.005541
9.100000	-0.000560
9.120000	-0.006965
9.140000	-0.006986
9.160000	0.001899
9.180000	-0.002895
9.200000	-0.010052
9.220000	0.000870
9.240000	-0.000617
9.260000	-0.012680
9.280000	-0.005097
9.300000	-0.002655
9.320000	-0.011774
9.340000	-0.004733
9.360000	0.002964
9.380000	-0.004885
9.400000	-0.004666
9.420000	0.005422
9.440000	0.000611
9.460000	-0.005578
9.480000	0.003375
9.500000	0.002506
9.520000	-0.006860
9.540000	-0.003877
9.560000	-0.001426
9.580000	-0.010117
9.600000	-0.010422
9.620000	-0.000144
9.640000	-0.003439
9.660000	-0.001024
9.680000	0.026313
9.700000	0.050393
9.720000	0.079000
9.740000	0.130446
9.760000	0.181245
9.780000	0.219221
9.800000	0.264250
9.820000	0.324135
9.840000	0.358932
9.860000	0.372726
9.880000	0.405559
9.900000	0.403998
9.920000	0.359037
9.940000	0.318252
9.960000	0.262398
9.980000	0.207607
10.000000	0.146184
10.020000	0.081725
10.040000	0.080107
10.060000	0.125345
10.080000	0.195539
10.100000	0.306024
10.120000	0.451329
10.140000	0.577962
10.160000	0.667229
10.180000	0.762814
10.200000	0.901110
10.220000	1.075463
10.240000	1.221913
10.260000	1.330892
10.280000	1.305476
10.300000	1.078098
10.320000	0.755670
10.340000	0.332513
10.360000	-0.150452
10.380000	-0.522590
10.400000	-0.785824
10.420000	-1.078942
10.440000	-1.301751
10.460000	-1.336013
10.480000	-1.329545
10.500000	-1.350060
10.520000	-1.289837
10.540000	-1.191460
10.560000	-1.293141
10.580000	-1.461894
10.600000	-1.511410
10.620000	-1.552107
10.640000	-1.493871
10.660000	-1.308840
10.680000	-1.131588
10.700000	-0.970993
10.720000	-0.748900
10.740000	-0.409422
10.760000	0.034813
10.780000	0.456660
10.800000	0.723135
10.820000	0.850890
10.840000	0.700228
10.860000	0.382524
10.880000	0.291129
10.900000	0.329552
10.920000	0.271874
10.940000	0.337785
10.960000	0.759512
10.980000	1.024583
11.000000	1.067999
11.020000	1.334252
11.040000	1.619622
11.060000	1.814112
11.080000	1.918895
11.100000	2.056070
11.120000	2.327749
11.140000	2.529671
11.160000	2.671335
11.180000	3.172840
11.200000	3.708139
11.220000	3.682427
11.240000	3.710441
11.260000	3.735816
11.280000	3.298403
11.300000	2.686138
11.320000	2.211869
11.340000	1.506644
11.360000	0.205767
11.380000	-0.684483
11.400000	-0.970052
11.420000	-1.443959
11.440000	-1.586304
11.460000	-0.898245
11.480000	-0.298026
11.500000	-0.090807
11.520000	-0.017041
11.540000	-0.474215
11.560000	-1.387075
11.580000	-2.281432
11.600000	-2.862307
11.620000	-3.185635
11.640000	-3.291789
11.660000	-3.248083
11.680000	-3.332763
11.700000	-3.362317
11.720000	-2.942847
11.740000	-1.985174
11.760000	-1.030174
11.780000	-0.273596
11.800000	0.601301
11.820000	1.095667
11.840000	1.362361
11.860000	1.931768
11.880000	2.209347
11.900000	2.114813
11.920000	1.840956
11.940000	1.439903
11.960000	1.253256
11.980000	1.124508
12.000000	0.908192
12.020000	0.635698
12.040000	0.295849
12.060000	-0.158197
12.080000	-0.680502
12.100000	-1.318128
12.120000	-2.750072
12.140000	-4.381266
12.160000	-5.349793
12.180000	-6.122833
12.200000	-6.341029
12.220000	-5.822380
12.240000	-5.647851
12.260000	-5.855536
12.280000	-5.325986
12.300000	-4.461929
12.320000	-3.947053
12.340000	-3.095851
12.360000	-2.210425
12.380000	-2.017718
12.400000	-1.953389
12.420000	-1.554464
12.440000	-1.161786
12.460000	-0.569769
12.480000	0.171375
12.500000	0.357944
12.520000	0.378789
12.540000	0.488155
12.560000	0.473450
12.580000	0.402582
12.600000	0.225708
12.620000	0.057876
12.640000	-0.034977
12.660000	0.034821
12.680000	0.481363
12.700000	1.538963
12.720000	2.624618
12.740000	3.000016
12.760000	3.412401
12.780000	4.196792
12.800000	4.957304
12.820000	5.623596
12.840000	5.832935
12.860000	5.571767
12.880000	4.877822
12.900000	3.651799
12.920000	2.442815
12.940000	1.511369
12.960000	0.587331
12.980000	-0.354672
13.000000	-1.461763
13.020000	-2.400022
13.040000	-2.420869
13.060000	-2.198322
13.080000	-2.031035
13.100000	-0.934909
13.120000	0.579912
13.140000	1.306909
13.160000	1.721260
13.180000	2.369696
13.200000	2.502796
13.220000	2.017978
13.240000	1.461435
13.260000	1.008896
13.280000	0.491872
13.300000	-0.138962
13.320000	-0.750680
13.340000	-1.507220
13.360000	-1.858031
13.380000	-1.803143
13.400000	-2.293815
13.420000	-3.422324
13.440000	-4.866728
13.460000	-6.290827
13.480000	-7.485447
13.500000	-8.231516
13.520000	-8.398418
13.540000	-8.380368
13.560000	-8.148415
13.580000	-7.523206
13.600000	-6.584622
13.620000	-5.555004
13.640000	-4.794408
13.660000	-3.802515
13.680000	-2.323829
13.700000	-0.390644
13.720000	1.698807
13.740000	2.969158
13.760000	3.619273
13.780000	4.327280
13.800000	5.011064
13.820000	5.544746
13.840000	5.834315
13.860000	5.410712
13.880000	4.547027
13.900000	3.806981
13.920000	3.459463
13.940000	3.750277
13.960000	4.007600
13.980000	4.013356
14.000000	4.068730
14.020000	3.764606
14.040000	3.070523
14.060000	2.456881
14.080000	1.113851
14.100000	-1.146763
14.120000	-2.484710
14.140000	-3.097757
14.160000	-3.958807
14.180000	-4.017118
14.200000	-3.194905
14.220000	-2.341559
14.240000	-1.549483
14.260000	-0.790386
14.280000	-0.148841
14.300000	-0.012991
14.320000	-0.336308
14.340000	-0.811189
14.360000	-1.138262
14.380000	-0.807757
14.400000	-0.555275
14.420000	-0.866612
14.440000	-1.263626
14.460000	-1.557917
14.480000	-0.903734
14.500000	0.277147
14.520000	0.759337
14.540000	1.103573
14.560000	1.302130
14.580000	0.907708
14.600000	0.589703
14.620000	0.696742
14.640000	0.348976
14.660000	-0.744485
14.680000	-1.064072
14.700000	-0.391142
14.720000	0.026849
14.740000	0.047634
14.760000	-0.449698
14.780000	-1.090550
14.800000	-0.873717
14.820000	-0.428850
14.840000	-0.051681
14.860000	0.615890
14.880000	0.778195
14.900000	0.434430
14.920000	-0.016003
14.940000	-0.535364
14.960000	-0.845479
14.980000	-0.938832
15.000000	-0.669989
15.020000	0.283072
15.040000	1.399076
15.060000	1.834657
15.080000	2.311591
15.100000	3.472871
15.120000	4.506220
15.140000	4.707897
15.160000	3.515370
15.180000	1.258008
15.200000	-0.256647
15.220000	-0.800832
15.240000	-0.973137
15.260000	-0.050213
15.280000	1.354780
15.300000	2.183209
15.320000	2.521743
15.340000	3.210629
15.360000	4.609392
15.380000	5.216536
15.400000	4.818358
15.420000	3.995395
15.440000	2.919352
15.460000	2.292886
15.480000	1.689664
15.500000	1.635183
15.520000	2.494071
15.540000	3.269666
15.560000	4.048072
15.580000	4.402618
15.600000	4.395461
15.620000	3.985446
15.640000	2.418044
15.660000	0.718013
15.680000	-0.307643
15.700000	-0.780716
15.720000	-0.938910
15.740000	-1.077298
15.760000	-1.029404
15.780000	-0.556573
15.800000	0.222710
15.820000	0.791044
15.840000	1.284434
15.860000	1.908839
15.880000	1.903174
15.900000	1.592297
15.920000	2.120870
15.940000	3.602334
15.960000	5.130772
15.980000	5.414348
16.000000	4.820224
16.020000	3.890156
16.040000	2.326183
16.060000	1.021783
16.080000	0.114008
16.100000	-0.463779
16.120000	-0.482638
16.140000	-0.632183
16.160000	-0.675655
16.180000	-0.832825
16.200000	-1.639010
16.220000	-2.547349
16.240000	-3.590633
16.260000	-4.077015
16.280000	-3.091434
16.300000	-1.673305
16.320000	-0.789663
16.340000	-0.557982
16.360000	-0.605882
16.380000	-0.890524
16.400000	-1.935620
16.420000	-2.788788
16.440000	-3.558341
16.460000	-5.474919
16.480000	-7.393676
16.500000	-7.746852
16.520000	-7.268458
16.540000	-7.085331
16.560000	-6.232933
16.580000	-5.156185
16.600000	-4.995570
16.620000	-4.511049
16.640000	-3.678386
16.660000	-3.043722
16.680000	-1.992910
16.700000	-0.805494
16.720000	0.257971
16.740000	1.705867
16.760000	3.323186
16.780000	4.157592
16.800000	3.842343
16.820000	3.371115
16.840000	3.750746
16.860000	4.049672
16.880000	3.248671
16.900000	1.975885
16.920000	0.891027
16.940000	0.656024
16.960000	1.342565
16.980000	2.001178
17.000000	1.979909
17.020000	1.294402
17.040000	0.620143
17.060000	-0.157509
17.080000	-1.438601
17.100000	-2.692520
17.120000	-3.560900
17.140000	-4.064404
17.160000	-4.237663
17.180000	-3.944669
17.200000	-3.397292
17.220000	-2.837340
17.240000	-1.669739
17.260000	0.026249
17.280000	1.075491
17.300000	1.305866
17.320000	1.300215
17.340000	1.529111
17.360000	2.195872
17.380000	2.731180
17.400000	3.034767
17.420000	3.056003
17.440000	2.680473
17.460000	1.996706
17.480000	0.578393
17.500000	-0.632912
17.520000	-0.857998
17.540000	-0.942453
17.560000	-0.765494
17.580000	0.070005
17.600000	0.717514
17.620000	0.485676
17.640000	-0.141607
17.660000	-1.065484
17.680000	-2.269899
17.700000	-2.498745
17.720000	-2.300615
17.740000	-2.964316
17.760000	-3.291421
17.780000	-3.068306
17.800000	-2.682444
17.820000	-1.280736
17.840000	0.422008
17.860000	1.558744
17.880000	2.223982
17.900000	2.145436
17.920000	2.097232
17.940000	2.647702
17.960000	2.774145
17.980000	2.475487
18.000000	2.074904
18.020000	1.416858
18.040000	1.134785
18.060000	0.910600
18.080000	0.053408
18.100000	-0.837699
18.120000	-0.957725
18.140000	-0.715646
18.160000	-1.024559
18.180000	-1.601013
18.200000	-1.751677
18.220000	-1.190775
18.240000	-0.497906
18.260000	-0.022906
18.280000	0.611857
18.300000	0.992125
18.320000	0.974822
18.340000	1.187371
18.360000	1.405224
18.380000	1.027530
18.400000	0.413059
18.420000	-0.130776
18.440000	-0.665442
18.460000	-1.245802
18.480000	-1.418697
18.500000	-1.073092
18.520000	-1.030212
18.540000	-0.718479
18.560000	-0.261948
18.580000	-0.373437
18.600000	-0.081046
18.620000	0.819324
18.640000	1.687920
18.660000	2.225199
18.680000	2.644766
18.700000	2.481293
18.720000	1.391654
18.740000	0.444728
18.760000	-0.456559
18.780000	-1.793880
18.800000	-2.643042
18.820000	-3.000966
18.840000	-3.485263
18.860000	-3.587377
18.880000	-3.362242
18.900000	-3.204737
18.920000	-3.137813
18.940000	-3.101669
18.960000	-2.584568
18.980000	-1.588070
19.000000	-0.279643
19.020000	0.969457
19.040000	1.641073
19.060000	1.995249
19.080000	2.251769
19.100000	2.739983
19.120000	3.153208
19.140000	3.054867
19.160000	3.285177
19.180000	3.545211
19.200000	3.530615
19.220000	3.924432
19.240000	3.701561
19.260000	2.629527
19.280000	1.820566
19.300000	1.456908
19.320000	1.909549
19.340000	2.863556
19.360000	3.397249
19.380000	3.444940
19.400000	3.096090
19.420000	2.771961
19.440000	2.432842
19.460000	1.292739
19.480000	-0.168849
19.500000	-1.666682
19.520000	-3.381339
19.540000	-4.395466
19.560000	-4.915274
19.580000	-5.624875
19.600000	-5.811956
19.620000	-5.536721
19.640000	-5.224836
19.660000	-4.484206
19.680000	-3.911753
19.700000	-3.737548
19.720000	-3.545157
19.740000	-3.458482
19.760000	-2.921224
19.780000	-1.699073
19.800000	-0.297961
19.820000	0.589470
19.840000	0.778051
19.860000	0.813723
19.880000	0.604681
19.900000	0.455310
19.920000	0.796675
19.940000	0.922188
19.960000	0.650089
19.980000	0.220875
20.000000	-0.038525
20.020000	0.477669
20.040000	1.201084
20.060000	1.413430
20.080000	1.411542
20.100000	1.179220
