Tiempo(s)	Amplitud(mm)
# npts=18501
# fs=50.0000 Hz
# duracion=370.0000 s

0.000000	0.000001
0.020000	0.000001
0.040000	0.000001
0.060000	0.000002
0.080000	0.000004
0.100000	0.000007
0.120000	0.000010
0.140000	0.000014
0.160000	0.000020
0.180000	0.000026
0.200000	0.000033
0.220000	0.000041
0.240000	0.000050
0.260000	0.000060
0.280000	0.000070
0.300000	0.000082
0.320000	0.000093
0.340000	0.000105
0.360000	0.000118
0.380000	0.000131
0.400000	0.000144
0.420000	0.000158
0.440000	0.000172
0.460000	0.000186
0.480000	0.000200
0.500000	0.000215
0.520000	0.000229
0.540000	0.000244
0.560000	0.000259
0.580000	0.000274
0.600000	0.000289
0.620000	0.000303
0.640000	0.000318
0.660000	0.000333
0.680000	0.000348
0.700000	0.000363
0.720000	0.000378
0.740000	0.000393
0.760000	0.000408
0.780000	0.000423
0.800000	0.000437
0.820000	0.000452
0.840000	0.000467
0.860000	0.000482
0.880000	0.000496
0.900000	0.000511
0.920000	0.000526
0.940000	0.000540
0.960000	0.000555
0.980000	0.000570
1.000000	0.000584
1.020000	0.000599
1.040000	0.000613
1.060000	0.000628
1.080000	0.000642
1.100000	0.000657
1.120000	0.000671
1.140000	0.000686
1.160000	0.000700
1.180000	0.000715
1.200000	0.000729
1.220000	0.000744
1.240000	0.000758
1.260000	0.000773
1.280000	0.000787
1.300000	0.000801
1.320000	0.000816
1.340000	0.000830
1.360000	0.000844
1.380000	0.000859
1.400000	0.000873
1.420000	0.000887
1.440000	0.000901
1.460000	0.000916
1.480000	0.000930
1.500000	0.000944
1.520000	0.000958
1.540000	0.000973
1.560000	0.000987
1.580000	0.001001
1.600000	0.001015
1.620000	0.001029
1.640000	0.001043
1.660000	0.001057
1.680000	0.001071
1.700000	0.001085
1.720000	0.001099
1.740000	0.001113
1.760000	0.001127
1.780000	0.001141
1.800000	0.001155
1.820000	0.001169
1.840000	0.001183
1.860000	0.001196
1.880000	0.001210
1.900000	0.001224
1.920000	0.001238
1.940000	0.001252
1.960000	0.001265
1.980000	0.001279
2.000000	0.001293
2.020000	0.001307
2.040000	0.001321
2.060000	0.001333
2.080000	0.001344
2.100000	0.001358
2.120000	0.001372
2.140000	0.001385
2.160000	0.001398
2.180000	0.001410
2.200000	0.001423
2.220000	0.001437
2.240000	0.001451
2.260000	0.001463
2.280000	0.001474
2.300000	0.001486
2.320000	0.001500
2.340000	0.001513
2.360000	0.001525
2.380000	0.001536
2.400000	0.001547
2.420000	0.001561
2.440000	0.001572
2.460000	0.001582
2.480000	0.001594
2.500000	0.001608
2.520000	0.001617
2.540000	0.001629
2.560000	0.001638
2.580000	0.001643
2.600000	0.001655
2.620000	0.001665
2.640000	0.001676
2.660000	0.001689
2.680000	0.001697
2.700000	0.001705
2.720000	0.001719
2.740000	0.001729
2.760000	0.001734
2.780000	0.001743
2.800000	0.001751
2.820000	0.001762
2.840000	0.001767
2.860000	0.001770
2.880000	0.001783
2.900000	0.001800
2.920000	0.001813
2.940000	0.001813
2.960000	0.001811
2.980000	0.001817
3.000000	0.001830
3.020000	0.001842
3.040000	0.001841
3.060000	0.001839
3.080000	0.001842
3.100000	0.001848
3.120000	0.001866
3.140000	0.001875
3.160000	0.001875
3.180000	0.001866
3.200000	0.001861
3.220000	0.001876
3.240000	0.001889
3.260000	0.001895
3.280000	0.001870
3.300000	0.001859
3.320000	0.001882
3.340000	0.001901
3.360000	0.001910
3.380000	0.001864
3.400000	0.001840
3.420000	0.001868
3.440000	0.001874
3.460000	0.001868
3.480000	0.001857
3.500000	0.001839
3.520000	0.001852
3.540000	0.001868
3.560000	0.001849
3.580000	0.001818
3.600000	0.001807
3.620000	0.001836
3.640000	0.001841
3.660000	0.001829
3.680000	0.001792
3.700000	0.001749
3.720000	0.001792
3.740000	0.001822
3.760000	0.001801
3.780000	0.001763
3.800000	0.001714
3.820000	0.001728
3.840000	0.001782
3.860000	0.001817
3.880000	0.001775
3.900000	0.001693
3.920000	0.001658
3.940000	0.001699
3.960000	0.001765
3.980000	0.001760
4.000000	0.001715
4.020000	0.001659
4.040000	0.001672
4.060000	0.001724
4.080000	0.001708
4.100000	0.001712
4.120000	0.001706
4.140000	0.001708
4.160000	0.001759
4.180000	0.001757
4.200000	0.001703
4.220000	0.001713
4.240000	0.001769
4.260000	0.001820
4.280000	0.001853
4.300000	0.001805
4.320000	0.001775
4.340000	0.001803
4.360000	0.001841
4.380000	0.001866
4.400000	0.001819
4.420000	0.001781
4.440000	0.001851
4.460000	0.001996
4.480000	0.002056
4.500000	0.001987
4.520000	0.001915
4.540000	0.001922
4.560000	0.001982
4.580000	0.002063
4.600000	0.002095
4.620000	0.002060
4.640000	0.002065
4.660000	0.002117
4.680000	0.002207
4.700000	0.002244
4.720000	0.002249
4.740000	0.002293
4.760000	0.002280
4.780000	0.002279
4.800000	0.002322
4.820000	0.002302
4.840000	0.002266
4.860000	0.002291
4.880000	0.002350
4.900000	0.002414
4.920000	0.002483
4.940000	0.002566
4.960000	0.002623
4.980000	0.002681
5.000000	0.002705
5.020000	0.002688
5.040000	0.002774
5.060000	0.002773
5.080000	0.002712
5.100000	0.002784
5.120000	0.002886
5.140000	0.002984
5.160000	0.002942
5.180000	0.002867
5.200000	0.002804
5.220000	0.002738
5.240000	0.002883
5.260000	0.003034
5.280000	0.003066
5.300000	0.003108
5.320000	0.003105
5.340000	0.003158
5.360000	0.003353
5.380000	0.003480
5.400000	0.003441
5.420000	0.003395
5.440000	0.003469
5.460000	0.003593
5.480000	0.003627
5.500000	0.003613
5.520000	0.003570
5.540000	0.003679
5.560000	0.003876
5.580000	0.003943
5.600000	0.003936
5.620000	0.003886
5.640000	0.003896
5.660000	0.003906
5.680000	0.003887
5.700000	0.003956
5.720000	0.003974
5.740000	0.004051
5.760000	0.004144
5.780000	0.004138
5.800000	0.003998
5.820000	0.003914
5.840000	0.003976
5.860000	0.003932
5.880000	0.003862
5.900000	0.003773
5.920000	0.003722
5.940000	0.003593
5.960000	0.003386
5.980000	0.003389
6.000000	0.003443
6.020000	0.003376
6.040000	0.003167
6.060000	0.002907
6.080000	0.002920
6.100000	0.003061
6.120000	0.002733
6.140000	0.002803
6.160000	0.002933
6.180000	0.002208
6.200000	0.002318
6.220000	0.002847
6.240000	0.002228
6.260000	0.001722
6.280000	0.001759
6.300000	0.001606
6.320000	0.001537
6.340000	0.001478
6.360000	0.001431
6.380000	0.001580
6.400000	0.001681
6.420000	0.001790
6.440000	0.001639
6.460000	0.001295
6.480000	0.001269
6.500000	0.001366
6.520000	0.001371
6.540000	0.001319
6.560000	0.001182
6.580000	0.001044
6.600000	0.001053
6.620000	0.001059
6.640000	0.000849
6.660000	0.000854
6.680000	0.001194
6.700000	0.001457
6.720000	0.001345
6.740000	0.000975
6.760000	0.000711
6.780000	0.000692
6.800000	0.000798
6.820000	0.000842
6.840000	0.000806
6.860000	0.000796
6.880000	0.000923
6.900000	0.001112
6.920000	0.001229
6.940000	0.001245
6.960000	0.000908
6.980000	0.000616
7.000000	0.000642
7.020000	0.001000
7.040000	0.001570
7.060000	0.001828
7.080000	0.001693
7.100000	0.001449
7.120000	0.001392
7.140000	0.001322
7.160000	0.001335
7.180000	0.001616
7.200000	0.001999
7.220000	0.001859
7.240000	0.001667
7.260000	0.002223
7.280000	0.002316
7.300000	0.002007
7.320000	0.002387
7.340000	0.002660
7.360000	0.002510
7.380000	0.002644
7.400000	0.002553
7.420000	0.002408
7.440000	0.002726
7.460000	0.003107
7.480000	0.003147
7.500000	0.002909
7.520000	0.002853
7.540000	0.003109
7.560000	0.003730
7.580000	0.004347
7.600000	0.004969
7.620000	0.005272
7.640000	0.005271
7.660000	0.005170
7.680000	0.005014
7.700000	0.005355
7.720000	0.005402
7.740000	0.005378
7.760000	0.005167
7.780000	0.005107
7.800000	0.005172
7.820000	0.005009
7.840000	0.005692
7.860000	0.005744
7.880000	0.005061
7.900000	0.004643
7.920000	0.005016
7.940000	0.005055
7.960000	0.004370
7.980000	0.004497
8.000000	0.004707
8.020000	0.005362
8.040000	0.004790
8.060000	0.004017
8.080000	0.005227
8.100000	0.004811
8.120000	0.003746
8.140000	0.003888
8.160000	0.003766
8.180000	0.004042
8.200000	0.003910
8.220000	0.003383
8.240000	0.003660
8.260000	0.003727
8.280000	0.003332
8.300000	0.002682
8.320000	0.002039
8.340000	0.001835
8.360000	0.001655
8.380000	0.001201
8.400000	0.000839
8.420000	0.000304
8.440000	0.000480
8.460000	0.000701
8.480000	0.000419
8.500000	0.000591
8.520000	-0.000501
8.540000	-0.001310
8.560000	-0.001987
8.580000	-0.002213
8.600000	-0.001606
8.620000	-0.002469
8.640000	-0.003247
8.660000	-0.004168
8.680000	-0.003988
8.700000	-0.003482
8.720000	-0.004246
8.740000	-0.004458
8.760000	-0.005014
8.780000	-0.004603
8.800000	-0.003959
8.820000	-0.004583
8.840000	-0.004948
8.860000	-0.006166
8.880000	-0.006592
8.900000	-0.005070
8.920000	-0.005327
8.940000	-0.005932
8.960000	-0.005898
8.980000	-0.006637
9.000000	-0.005664
9.020000	-0.004123
9.040000	-0.005254
9.060000	-0.007051
9.080000	-0.006911
9.100000	-0.006034
9.120000	-0.005120
9.140000	-0.004503
9.160000	-0.004833
9.180000	-0.005437
9.200000	-0.005954
9.220000	-0.005656
9.240000	-0.003892
9.260000	-0.002525
9.280000	-0.003498
9.300000	-0.005146
9.320000	-0.005474
9.340000	-0.004306
9.360000	-0.002722
9.380000	-0.002683
9.400000	-0.004057
9.420000	-0.005392
9.440000	-0.004978
9.460000	-0.003493
9.480000	-0.002981
9.500000	-0.003424
9.520000	-0.004773
9.540000	-0.005910
9.560000	-0.005219
9.580000	-0.004040
9.600000	-0.003610
9.620000	-0.004132
9.640000	-0.005123
9.660000	-0.005641
9.680000	-0.005833
9.700000	-0.005041
9.720000	-0.003885
9.740000	-0.002645
9.760000	-0.002151
9.780000	-0.001481
9.800000	-0.000440
9.820000	-0.000769
9.840000	0.000184
9.860000	0.000255
9.880000	0.001557
9.900000	0.001250
9.920000	0.002158
9.940000	0.003337
9.960000	0.002435
9.980000	0.003727
10.000000	0.002099
10.020000	0.002684
10.040000	-0.008296
10.060000	-0.027398
10.080000	-0.088872
10.100000	-0.243781
10.120000	-0.610572
10.140000	-1.314587
10.160000	-2.349268
10.180000	-3.444162
10.200000	-3.978763
10.220000	-3.311257
10.240000	-1.421415
10.260000	-0.038317
10.280000	-0.222847
10.300000	-0.405354
10.320000	1.385158
10.340000	4.818947
10.360000	6.478358
10.380000	5.584456
10.400000	4.224427
10.420000	1.976845
10.440000	-1.838162
10.460000	-5.022541
10.480000	-4.452038
10.500000	0.377602
10.520000	6.312540
10.540000	7.325457
10.560000	2.360122
10.580000	-1.201342
10.600000	-0.481892
10.620000	-0.358857
10.640000	-2.081952
10.660000	-1.742875
10.680000	1.740184
10.700000	3.658553
10.720000	0.658733
10.740000	-3.175492
10.760000	-3.077535
10.780000	-0.593814
10.800000	-0.690165
10.820000	-3.012454
10.840000	-3.593549
10.860000	-2.392336
10.880000	-0.357949
10.900000	0.489835
10.920000	-0.510971
10.940000	-0.902608
10.960000	-0.315350
10.980000	0.025072
11.000000	0.144777
11.020000	1.121282
11.040000	2.354696
11.060000	2.347876
11.080000	1.050663
11.100000	0.913890
11.120000	1.360832
11.140000	0.454500
11.160000	0.831727
11.180000	2.248574
11.200000	2.746545
11.220000	2.304048
11.240000	0.863384
11.260000	-0.832465
11.280000	-1.631888
11.300000	-1.418582
11.320000	-1.204401
11.340000	-1.660401
11.360000	-3.063130
11.380000	-4.277484
11.400000	-2.792052
11.420000	1.066588
11.440000	3.185707
11.460000	1.381730
11.480000	-2.119410
11.500000	-3.724473
11.520000	-2.581995
11.540000	-0.370930
11.560000	0.697485
11.580000	-0.086571
11.600000	0.640478
11.620000	2.797320
11.640000	3.078281
11.660000	3.004613
11.680000	3.358951
11.700000	2.669824
11.720000	2.141312
11.740000	1.180976
11.760000	-1.755966
11.780000	-3.444926
11.800000	-2.328651
11.820000	-1.127263
11.840000	-1.350691
11.860000	-2.101776
11.880000	-2.138242
11.900000	-1.690615
11.920000	-1.499056
11.940000	-1.009767
11.960000	0.274287
11.980000	0.712837
12.000000	0.133642
12.020000	0.035407
12.040000	0.450307
12.060000	1.342898
12.080000	2.416260
12.100000	3.168414
12.120000	2.988981
12.140000	1.454254
12.160000	-0.614459
12.180000	-2.330170
12.200000	-2.978449
12.220000	-1.923064
12.240000	0.130792
12.260000	0.929227
12.280000	0.053273
12.300000	-0.655390
12.320000	-0.610242
12.340000	-0.359976
12.360000	-0.766369
12.380000	-1.771802
12.400000	-2.181327
12.420000	-1.627790
12.440000	-0.793618
12.460000	-0.240605
12.480000	0.898286
12.500000	1.993375
12.520000	1.402093
12.540000	0.229418
12.560000	0.838639
12.580000	3.143768
12.600000	3.084300
12.620000	-0.422263
12.640000	-2.787513
12.660000	-1.070412
12.680000	1.728248
12.700000	1.713118
12.720000	0.450109
12.740000	1.074173
12.760000	2.760709
12.780000	3.276814
12.800000	2.182460
12.820000	-0.797459
12.840000	-3.515120
12.860000	-2.575340
12.880000	0.315276
12.900000	0.860274
12.920000	-1.446254
12.940000	-3.230073
12.960000	-2.912660
12.980000	-1.988317
13.000000	-1.379393
13.020000	-0.287578
13.040000	0.821233
13.060000	0.445993
13.080000	-0.700207
13.100000	-1.801680
13.120000	-2.211830
13.140000	-1.294176
13.160000	-0.026140
13.180000	0.966067
13.200000	1.083321
13.220000	0.554136
13.240000	0.561026
13.260000	0.981402
13.280000	1.497092
13.300000	1.401019
13.320000	1.184574
13.340000	1.883226
13.360000	1.910710
13.380000	1.307954
13.400000	1.844858
13.420000	1.896588
13.440000	1.172687
13.460000	0.873873
13.480000	-1.211986
13.500000	-3.213931
13.520000	-2.389072
13.540000	-0.977166
13.560000	0.897166
13.580000	2.569309
13.600000	2.331359
13.620000	1.292263
13.640000	0.104613
13.660000	-0.671059
13.680000	-0.520442
13.700000	-0.431098
13.720000	-0.767506
13.740000	-1.543823
13.760000	-2.691131
13.780000	-3.784882
13.800000	-4.159673
13.820000	-2.752578
13.840000	-0.752739
13.860000	1.193882
13.880000	3.167667
13.900000	2.916957
13.920000	0.747089
13.940000	-0.528552
13.960000	-0.470737
13.980000	-0.162220
14.000000	0.041537
14.020000	-0.496558
14.040000	-0.948095
14.060000	-0.772559
14.080000	-0.840352
14.100000	0.272111
14.120000	2.313559
14.140000	2.837704
14.160000	1.715345
14.180000	1.347635
14.200000	1.872431
14.220000	1.301087
14.240000	0.593730
14.260000	0.320404
14.280000	-0.157048
14.300000	-0.391394
14.320000	-0.799987
14.340000	-1.629855
14.360000	-2.550850
14.380000	-2.532847
14.400000	-0.128458
14.420000	2.418625
14.440000	2.657498
14.460000	1.284508
14.480000	-0.103848
14.500000	0.210800
14.520000	0.737557
14.540000	-0.239809
14.560000	-0.740102
14.580000	-0.371837
14.600000	0.156137
14.620000	0.645462
14.640000	0.221003
14.660000	0.076299
14.680000	0.283604
14.700000	-0.273041
14.720000	-1.011432
14.740000	-0.759690
14.760000	0.851248
14.780000	1.170063
14.800000	-0.768617
14.820000	-2.769360
14.840000	-2.947322
14.860000	-0.820057
14.880000	1.310947
14.900000	0.848228
14.920000	-0.308523
14.940000	0.173803
14.960000	0.444300
14.980000	-0.097595
15.000000	-1.160778
15.020000	-2.525130
15.040000	-3.903895
15.060000	-4.697522
15.080000	-3.061472
15.100000	-1.327829
15.120000	-1.061945
15.140000	-0.064120
15.160000	1.908838
15.180000	3.021208
15.200000	2.069716
15.220000	0.668252
15.240000	0.887916
15.260000	2.613655
15.280000	3.447280
15.300000	2.315932
15.320000	0.754373
15.340000	-0.107829
15.360000	-0.777837
15.380000	-1.166081
15.400000	0.830748
15.420000	3.426289
15.440000	3.362870
15.460000	1.392328
15.480000	-0.925576
15.500000	-2.161869
15.520000	-1.747526
15.540000	-1.046083
15.560000	-0.666262
15.580000	0.891432
15.600000	2.028592
15.620000	0.610986
15.640000	-1.193918
15.660000	-2.157955
15.680000	-2.050300
15.700000	-1.666759
15.720000	-1.359483
15.740000	0.456029
15.760000	2.146618
15.780000	2.077790
15.800000	0.931213
15.820000	-0.120282
15.840000	-0.571484
15.860000	-1.229131
15.880000	-1.664172
15.900000	-2.121330
15.920000	-2.291536
15.940000	-0.709842
15.960000	1.031580
15.980000	1.071912
16.000000	0.395643
16.020000	0.637077
16.040000	1.819735
16.060000	2.470616
16.080000	1.845017
16.100000	1.353329
16.120000	1.032471
16.140000	0.076492
16.160000	-0.552421
16.180000	-0.725340
16.200000	-0.606391
16.220000	-0.327626
16.240000	-0.372000
16.260000	-0.466175
16.280000	-0.352898
16.300000	-0.137302
16.320000	0.215142
16.340000	0.755792
16.360000	1.132052
16.380000	0.794033
16.400000	-0.122371
16.420000	-0.544934
16.440000	0.028756
16.460000	0.508716
16.480000	-0.330675
16.500000	-1.616287
16.520000	-2.241547
16.540000	-2.823641
16.560000	-2.355743
16.580000	-0.675724
16.600000	0.213949
16.620000	0.737168
16.640000	1.646308
16.660000	2.960582
16.680000	3.146613
16.700000	1.767101
16.720000	0.499703
16.740000	-0.122791
16.760000	0.780535
16.780000	0.027603
16.800000	-2.376063
16.820000	-1.854620
16.840000	0.002132
16.860000	0.552584
16.880000	-0.825505
16.900000	-1.740198
16.920000	-0.896874
16.940000	-0.876105
16.960000	-1.369271
16.980000	-1.272816
17.000000	-0.847552
17.020000	0.028912
17.040000	0.141357
17.060000	-0.687044
17.080000	-0.350513
17.100000	0.838403
17.120000	0.486306
17.140000	-1.435607
17.160000	-2.174648
17.180000	-0.939072
17.200000	0.151813
17.220000	0.026602
17.240000	-0.412646
17.260000	0.086237
17.280000	1.738803
17.300000	3.174066
17.320000	3.268783
17.340000	2.925353
17.360000	3.442420
17.380000	3.584534
17.400000	1.960679
17.420000	0.914420
17.440000	1.129720
17.460000	1.615950
17.480000	2.257667
17.500000	1.387285
17.520000	-0.200328
17.540000	-1.653888
17.560000	-3.786167
17.580000	-4.818650
17.600000	-4.242534
17.620000	-3.244744
17.640000	-3.265244
17.660000	-3.984935
17.680000	-3.113765
17.700000	-1.320990
17.720000	0.902930
17.740000	3.014696
17.760000	4.266092
17.780000	3.842753
17.800000	1.111416
17.820000	-1.223771
17.840000	-1.961694
17.860000	-0.894455
17.880000	0.630684
17.900000	1.148359
17.920000	1.172188
17.940000	0.664238
17.960000	0.631903
17.980000	1.137204
18.000000	1.603722
18.020000	1.412920
18.040000	0.750549
18.060000	0.980430
18.080000	1.274166
18.100000	-0.045354
18.120000	-1.616365
18.140000	-1.705919
18.160000	-0.938470
18.180000	-0.571098
18.200000	-1.302600
18.220000	-0.934070
18.240000	0.940645
18.260000	1.857084
18.280000	0.948166
18.300000	-1.308783
18.320000	-3.047174
18.340000	-3.650070
18.360000	-3.690804
18.380000	-3.430054
18.400000	-1.740753
18.420000	1.687916
18.440000	3.614006
18.460000	3.200515
18.480000	1.978761
18.500000	0.597308
18.520000	0.269905
18.540000	0.664650
18.560000	0.737749
18.580000	1.375182
18.600000	1.877054
18.620000	0.732144
18.640000	-0.359792
18.660000	0.668083
18.680000	2.528729
18.700000	2.481277
18.720000	0.786689
18.740000	-0.721957
18.760000	-2.104256
18.780000	-3.315335
18.800000	-3.803242
18.820000	-4.354542
18.840000	-5.200821
18.860000	-5.100227
18.880000	-3.438782
18.900000	-0.762566
18.920000	1.493984
18.940000	1.840458
18.960000	0.969787
18.980000	0.222354
19.000000	-0.405760
19.020000	-0.098946
19.040000	1.228383
19.060000	2.532169
19.080000	3.236749
19.100000	2.839347
19.120000	2.663967
19.140000	3.513955
19.160000	4.201404
19.180000	4.210577
19.200000	2.700858
19.220000	-0.247922
19.240000	-1.815255
19.260000	-1.055315
19.280000	0.055851
19.300000	-0.478145
19.320000	-2.527832
19.340000	-3.709281
19.360000	-3.121853
19.380000	-1.601398
19.400000	-0.834480
19.420000	-0.554389
19.440000	0.440054
19.460000	0.974291
19.480000	1.135527
19.500000	0.851222
19.520000	0.434516
19.540000	1.000194
19.560000	1.476464
19.580000	0.814424
19.600000	-0.767973
19.620000	-1.252415
19.640000	-0.470597
19.660000	-0.290529
19.680000	-0.132632
19.700000	0.572577
19.720000	1.046973
19.740000	0.311732
19.760000	-1.084756
19.780000	-1.431948
19.800000	-1.221681
19.820000	-1.414536
19.840000	-1.542604
19.860000	-1.043767
19.880000	-0.318411
19.900000	0.734547
19.920000	2.285204
19.940000	1.929975
19.960000	-0.304815
19.980000	-1.834018
20.000000	-2.306355
20.020000	-1.547190
20.040000	-0.048445
20.060000	0.494769
20.080000	0.242587
