Tiempo(s)	Amplitud(mm)
# npts=17603
# fs=50.0000 Hz
# duracion=352.0400 s

0.000000	0.000000
0.020000	0.000000
0.040000	0.000000
0.060000	0.000001
0.080000	0.000001
0.100000	0.000001
0.120000	0.000002
0.140000	0.000002
0.160000	0.000003
0.180000	0.000004
0.200000	0.000005
0.220000	0.000006
0.240000	0.000007
0.260000	0.000009
0.280000	0.000010
0.300000	0.000011
0.320000	0.000013
0.340000	0.000015
0.360000	0.000017
0.380000	0.000018
0.400000	0.000020
0.420000	0.000022
0.440000	0.000024
0.460000	0.000026
0.480000	0.000028
0.500000	0.000030
0.520000	0.000032
0.540000	0.000034
0.560000	0.000037
0.580000	0.000039
0.600000	0.000041
0.620000	0.000043
0.640000	0.000045
0.660000	0.000047
0.680000	0.000049
0.700000	0.000051
0.720000	0.000054
0.740000	0.000056
0.760000	0.000058
0.780000	0.000060
0.800000	0.000062
0.820000	0.000064
0.840000	0.000067
0.860000	0.000069
0.880000	0.000071
0.900000	0.000073
0.920000	0.000076
0.940000	0.000079
0.960000	0.000080
0.980000	0.000082
1.000000	0.000084
1.020000	0.000086
1.040000	0.000089
1.060000	0.000091
1.080000	0.000093
1.100000	0.000094
1.120000	0.000097
1.140000	0.000099
1.160000	0.000101
1.180000	0.000105
1.200000	0.000107
1.220000	0.000110
1.240000	0.000111
1.260000	0.000111
1.280000	0.000111
1.300000	0.000112
1.320000	0.000114
1.340000	0.000113
1.360000	0.000116
1.380000	0.000122
1.400000	0.000128
1.420000	0.000135
1.440000	0.000138
1.460000	0.000142
1.480000	0.000147
1.500000	0.000148
1.520000	0.000151
1.540000	0.000151
1.560000	0.000150
1.580000	0.000145
1.600000	0.000138
1.620000	0.000134
1.640000	0.000127
1.660000	0.000125
1.680000	0.000129
1.700000	0.000142
1.720000	0.000167
1.740000	0.000182
1.760000	0.000188
1.780000	0.000188
1.800000	0.000181
1.820000	0.000175
1.840000	0.000167
1.860000	0.000155
1.880000	0.000153
1.900000	0.000162
1.920000	0.000185
1.940000	0.000189
1.960000	0.000179
1.980000	0.000178
2.000000	0.000166
2.020000	0.000185
2.040000	0.000207
2.060000	0.000214
2.080000	0.000231
2.100000	0.000213
2.120000	0.000187
2.140000	0.000144
2.160000	0.000106
2.180000	0.000099
2.200000	0.000088
2.220000	0.000113
2.240000	0.000129
2.260000	0.000152
2.280000	0.000213
2.300000	0.000236
2.320000	0.000265
2.340000	0.000255
2.360000	0.000202
2.380000	0.000213
2.400000	0.000230
2.420000	0.000301
2.440000	0.000356
2.460000	0.000369
2.480000	0.000376
2.500000	0.000309
2.520000	0.000311
2.540000	0.000236
2.560000	0.000173
2.580000	0.000214
2.600000	0.000225
2.620000	0.000345
2.640000	0.000406
2.660000	0.000438
2.680000	0.000406
2.700000	0.000333
2.720000	0.000360
2.740000	0.000272
2.760000	0.000182
2.780000	0.000228
2.800000	0.000263
2.820000	0.000224
2.840000	0.000186
2.860000	0.000071
2.880000	0.000078
2.900000	0.000215
2.920000	0.000467
2.940000	0.000844
2.960000	0.000890
2.980000	0.000943
3.000000	0.000917
3.020000	0.000717
3.040000	0.000516
3.060000	0.000159
3.080000	0.000137
3.100000	0.000008
3.120000	-0.000485
3.140000	-0.000912
3.160000	-0.001014
3.180000	-0.000494
3.200000	-0.000031
3.220000	0.000199
3.240000	0.000727
3.260000	0.001203
3.280000	0.001274
3.300000	0.001061
3.320000	0.000800
3.340000	0.000876
3.360000	0.000809
3.380000	0.000299
3.400000	-0.000434
3.420000	-0.001159
3.440000	-0.001051
3.460000	-0.000311
3.480000	0.000659
3.500000	0.000916
3.520000	0.000422
3.540000	0.000327
3.560000	0.000389
3.580000	0.001003
3.600000	0.001496
3.620000	0.001983
3.640000	0.002261
3.660000	0.001399
3.680000	0.000771
3.700000	0.000316
3.720000	0.000019
3.740000	-0.000855
3.760000	-0.001872
3.780000	-0.001997
3.800000	-0.001237
3.820000	0.000706
3.840000	0.001894
3.860000	0.002578
3.880000	0.002918
3.900000	0.003168
3.920000	0.003605
3.940000	0.002327
3.960000	0.000725
3.980000	-0.000166
4.000000	-0.000714
4.020000	-0.000961
4.040000	-0.001535
4.060000	-0.002027
4.080000	-0.001927
4.100000	-0.001069
4.120000	0.000417
4.140000	0.001195
4.160000	0.001676
4.180000	0.004069
4.200000	0.006643
4.220000	0.006491
4.240000	0.004683
4.260000	0.003243
4.280000	0.001273
4.300000	-0.002687
4.320000	-0.005670
4.340000	-0.005754
4.360000	-0.003980
4.380000	-0.000337
4.400000	0.001869
4.420000	0.001170
4.440000	0.000980
4.460000	0.001802
4.480000	0.002435
4.500000	0.003604
4.520000	0.004875
4.540000	0.003145
4.560000	0.001001
4.580000	0.001374
4.600000	0.001701
4.620000	0.001509
4.640000	-0.000139
4.660000	0.000370
4.680000	0.003506
4.700000	0.002849
4.720000	0.001547
4.740000	0.001354
4.760000	0.000630
4.780000	0.001756
4.800000	0.001908
4.820000	0.000172
4.840000	-0.000468
4.860000	-0.003345
4.880000	-0.006725
4.900000	-0.006003
4.920000	-0.002892
4.940000	-0.000411
4.960000	-0.000898
4.980000	-0.000599
5.000000	0.003123
5.020000	0.008647
5.040000	0.010291
5.060000	0.007145
5.080000	0.005911
5.100000	0.006459
5.120000	0.008297
5.140000	0.008532
5.160000	0.005410
5.180000	0.000598
5.200000	-0.003771
5.220000	-0.005665
5.240000	-0.007262
5.260000	-0.006213
5.280000	-0.006482
5.300000	-0.009817
5.320000	-0.007718
5.340000	-0.000938
5.360000	0.002315
5.380000	-0.000202
5.400000	-0.002412
5.420000	-0.002796
5.440000	-0.002827
5.460000	-0.001887
5.480000	-0.000773
5.500000	-0.004064
5.520000	-0.008959
5.540000	-0.010144
5.560000	-0.010277
5.580000	-0.008157
5.600000	-0.008474
5.620000	-0.009619
5.640000	-0.004224
5.660000	0.002124
5.680000	0.004325
5.700000	0.003376
5.720000	0.002729
5.740000	0.001857
5.760000	0.000999
5.780000	-0.001890
5.800000	-0.008489
5.820000	-0.010771
5.840000	-0.008699
5.860000	-0.007212
5.880000	-0.006821
5.900000	-0.005505
5.920000	0.003523
5.940000	0.014507
5.960000	0.018561
5.980000	0.016596
6.000000	0.013555
6.020000	0.015638
6.040000	0.012134
6.060000	0.002881
6.080000	0.001825
6.100000	0.000597
6.120000	-0.010928
6.140000	-0.021694
6.160000	-0.017784
6.180000	-0.001524
6.200000	0.013676
6.220000	0.019770
6.240000	0.024322
6.260000	0.025769
6.280000	0.021780
6.300000	0.015636
6.320000	0.006771
6.340000	0.005177
6.360000	-0.000743
6.380000	-0.007116
6.400000	0.002730
6.420000	0.012967
6.440000	0.012337
6.460000	-0.004503
6.480000	-0.018332
6.500000	-0.020732
6.520000	-0.020478
6.540000	-0.007421
6.560000	0.006634
6.580000	0.016657
6.600000	0.028563
6.620000	0.035521
6.640000	0.032212
6.660000	0.017583
6.680000	0.000372
6.700000	-0.012421
6.720000	-0.014078
6.740000	-0.002745
6.760000	0.003920
6.780000	-0.000724
6.800000	-0.003203
6.820000	0.000274
6.840000	0.011184
6.860000	0.018270
6.880000	0.014786
6.900000	0.018095
6.920000	0.018674
6.940000	0.007544
6.960000	-0.013506
6.980000	-0.035524
7.000000	-0.043716
7.020000	-0.043580
7.040000	-0.032087
7.060000	-0.020080
7.080000	-0.001028
7.100000	0.033100
7.120000	0.051938
7.140000	0.046263
7.160000	0.019724
7.180000	-0.005011
7.200000	-0.006454
7.220000	0.005650
7.240000	0.013506
7.260000	0.012934
7.280000	0.007923
7.300000	-0.001953
7.320000	-0.014473
7.340000	-0.016172
7.360000	-0.005398
7.380000	-0.006449
7.400000	-0.007722
7.420000	-0.007766
7.440000	-0.018479
7.460000	-0.015902
7.480000	-0.014277
7.500000	-0.029025
7.520000	-0.036696
7.540000	-0.030387
7.560000	-0.003702
7.580000	0.028836
7.600000	0.022738
7.620000	-0.009183
7.640000	-0.027106
7.660000	-0.016711
7.680000	-0.006229
7.700000	-0.018524
7.720000	-0.028616
7.740000	-0.030991
7.760000	-0.028700
7.780000	-0.035110
7.800000	-0.037663
7.820000	-0.020138
7.840000	-0.005631
7.860000	0.009893
7.880000	0.026274
7.900000	0.036242
7.920000	0.032403
7.940000	0.014624
7.960000	-0.002058
7.980000	-0.005838
8.000000	0.002695
8.020000	0.000578
8.040000	-0.012962
8.060000	-0.016379
8.080000	-0.003606
8.100000	0.001428
8.120000	-0.015264
8.140000	-0.032133
8.160000	-0.031785
8.180000	-0.018863
8.200000	-0.011683
8.220000	-0.021276
8.240000	-0.036048
8.260000	-0.037178
8.280000	-0.011745
8.300000	0.021000
8.320000	0.020951
8.340000	0.004319
8.360000	-0.001117
8.380000	0.011162
8.400000	0.036136
8.420000	0.045893
8.440000	0.033903
8.460000	0.009563
8.480000	-0.011239
8.500000	-0.028606
8.520000	-0.041452
8.540000	-0.045790
8.560000	-0.056288
8.580000	-0.056730
8.600000	-0.039199
8.620000	-0.015319
8.640000	-0.006675
8.660000	-0.017050
8.680000	-0.015849
8.700000	-0.016266
8.720000	-0.015401
8.740000	0.004426
8.760000	0.021084
8.780000	0.014661
8.800000	-0.008461
8.820000	-0.017620
8.840000	-0.004274
8.860000	0.014058
8.880000	0.012464
8.900000	0.009791
8.920000	0.021218
8.940000	0.025895
8.960000	0.028343
8.980000	0.019175
9.000000	-0.003052
9.020000	-0.020104
9.040000	-0.021595
9.060000	-0.017069
9.080000	-0.021625
9.100000	-0.033618
9.120000	-0.044268
9.140000	-0.026988
9.160000	0.014144
9.180000	0.028254
9.200000	0.015217
9.220000	0.014300
9.240000	0.022432
9.260000	0.028263
9.280000	0.023463
9.300000	0.012263
9.320000	0.005854
9.340000	0.017416
9.360000	0.045767
9.380000	0.048458
9.400000	0.032659
9.420000	0.015567
9.440000	0.003314
9.460000	-0.001889
9.480000	-0.026757
9.500000	-0.039556
9.520000	-0.024027
9.540000	-0.006628
9.560000	0.010876
9.580000	0.019019
9.600000	0.009436
9.620000	0.003964
9.640000	0.028441
9.660000	0.060648
9.680000	0.083229
9.700000	0.080796
9.720000	0.045107
9.740000	0.028221
9.760000	0.037021
9.780000	0.044187
9.800000	0.028058
9.820000	-0.020308
9.840000	-0.056752
9.860000	-0.054403
9.880000	-0.032759
9.900000	-0.017949
9.920000	-0.004991
9.940000	0.018730
9.960000	0.032761
9.980000	0.008444
10.000000	-0.027859
10.020000	-0.039505
10.040000	-0.022112
10.060000	0.051178
10.080000	0.220678
10.100000	0.664406
10.120000	1.824876
10.140000	4.143540
10.160000	7.476790
10.180000	10.896308
10.200000	13.232325
10.220000	13.178361
10.240000	8.718394
10.260000	-0.647832
10.280000	-11.751014
10.300000	-19.445985
10.320000	-21.134059
10.340000	-19.559438
10.360000	-17.120882
10.380000	-13.937567
10.400000	-9.864537
10.420000	-5.154184
10.440000	-1.708851
10.460000	0.147419
10.480000	1.960376
10.500000	5.423918
10.520000	9.367729
10.540000	11.724271
10.560000	12.508446
10.580000	12.421108
10.600000	11.754219
10.620000	9.879036
10.640000	9.198819
10.660000	8.726934
10.680000	6.874905
10.700000	4.936197
10.720000	1.906150
10.740000	-0.632397
10.760000	-4.253147
10.780000	-7.814873
10.800000	-7.814872
10.820000	-7.272725
10.840000	-6.324321
10.860000	-5.972169
10.880000	-6.947168
10.900000	-9.077488
10.920000	-12.188369
10.940000	-12.327802
10.960000	-10.743825
10.980000	-7.510387
11.000000	-1.465939
11.020000	3.957715
11.040000	6.796810
11.060000	7.684393
11.080000	8.909019
11.100000	7.639938
11.120000	4.873110
11.140000	3.704604
11.160000	3.621655
11.180000	5.927256
11.200000	6.145155
11.220000	6.624239
11.240000	7.276750
11.260000	5.283811
11.280000	3.938090
11.300000	0.418713
11.320000	-0.963693
11.340000	-0.626453
11.360000	0.320234
11.380000	1.211896
11.400000	-1.651559
11.420000	-0.402864
11.440000	0.653580
11.460000	-1.874828
11.480000	-4.337148
11.500000	-8.605230
11.520000	-12.700676
11.540000	-16.365913
11.560000	-16.772817
11.580000	-14.494463
11.600000	-12.763165
11.620000	-9.283655
11.640000	-4.810954
11.660000	1.247977
11.680000	7.209170
11.700000	11.389331
11.720000	15.319851
11.740000	15.074713
11.760000	12.913929
11.780000	12.375997
11.800000	13.078328
11.820000	12.991712
11.840000	10.194623
11.860000	8.345594
11.880000	5.026371
11.900000	2.813086
11.920000	2.985214
11.940000	-0.906207
11.960000	-7.111978
11.980000	-11.258484
12.000000	-11.733341
12.020000	-13.647015
12.040000	-12.646771
12.060000	-6.680729
12.080000	-2.687143
12.100000	0.260801
12.120000	0.701137
12.140000	-0.038634
12.160000	-2.096947
12.180000	-2.776607
12.200000	-1.012507
12.220000	-1.190614
12.240000	-0.176479
12.260000	1.553630
12.280000	3.481007
12.300000	4.334075
12.320000	3.421672
12.340000	1.858768
12.360000	1.233042
12.380000	0.344659
12.400000	-3.262763
12.420000	-3.746763
12.440000	-3.277021
12.460000	-1.804590
12.480000	3.048355
12.500000	6.476686
12.520000	7.550030
12.540000	7.166590
12.560000	6.856320
12.580000	5.809041
12.600000	3.005776
12.620000	-1.684097
12.640000	-4.820349
12.660000	-9.167474
12.680000	-13.141796
12.700000	-10.033455
12.720000	-6.475488
12.740000	-2.792113
12.760000	-1.342524
12.780000	0.277012
12.800000	4.100485
12.820000	3.981586
12.840000	5.181932
12.860000	6.252149
12.880000	5.974275
12.900000	4.578813
12.920000	4.283975
12.940000	5.639071
12.960000	3.155205
12.980000	1.321481
13.000000	-0.544559
13.020000	-3.054131
13.040000	-5.183853
13.060000	-5.969965
13.080000	-4.255341
13.100000	-4.113835
13.120000	-3.761528
13.140000	-2.761764
13.160000	-1.527629
13.180000	-2.567151
13.200000	-2.732417
13.220000	1.193244
13.240000	2.205022
13.260000	2.438733
13.280000	2.944209
13.300000	3.386239
13.320000	1.902075
13.340000	-0.368522
13.360000	0.332884
13.380000	-2.573025
13.400000	-5.302824
13.420000	-5.701342
13.440000	-5.530744
13.460000	-3.913663
13.480000	-2.288524
13.500000	2.252938
13.520000	5.127994
13.540000	6.589720
13.560000	10.395236
13.580000	13.091917
13.600000	14.184604
13.620000	14.133700
13.640000	11.584427
13.660000	4.857848
13.680000	-2.691987
13.700000	-9.537554
13.720000	-15.775346
13.740000	-19.100589
13.760000	-18.538035
13.780000	-14.667219
13.800000	-9.820030
13.820000	-3.865198
13.840000	0.877121
13.860000	3.724024
13.880000	8.060401
13.900000	10.942589
13.920000	7.937003
13.940000	2.733350
13.960000	-0.577543
13.980000	-4.295921
14.000000	-3.746497
14.020000	2.332285
14.040000	5.528329
14.060000	6.793119
14.080000	7.963498
14.100000	6.836651
14.120000	3.097517
14.140000	-0.674377
14.160000	-1.396388
14.180000	-1.922945
14.200000	-1.359343
14.220000	-0.158599
14.240000	-2.797404
14.260000	-4.922789
14.280000	-4.937385
14.300000	-3.377833
14.320000	-0.322221
14.340000	0.614491
14.360000	1.438434
14.380000	-1.106269
14.400000	-7.005420
14.420000	-6.892210
14.440000	-5.669883
14.460000	-6.539097
14.480000	-3.709250
14.500000	2.468248
14.520000	7.104997
14.540000	8.995881
14.560000	10.649272
14.580000	7.700168
14.600000	2.707507
14.620000	0.132216
14.640000	-1.590398
14.660000	-1.595717
14.680000	-2.546437
14.700000	-3.615613
14.720000	-4.434668
14.740000	-3.771394
14.760000	-3.017044
14.780000	-2.023000
14.800000	3.529561
14.820000	5.279212
14.840000	5.423915
14.860000	6.577210
14.880000	4.350594
14.900000	1.861544
14.920000	-0.675914
14.940000	-2.270536
14.960000	-4.564609
14.980000	-5.856799
15.000000	-4.105702
15.020000	-0.847268
15.040000	1.176034
15.060000	0.118471
15.080000	-0.225224
15.100000	-4.048046
15.120000	-5.722423
15.140000	-2.317248
15.160000	-2.909146
15.180000	-1.112660
15.200000	2.670473
15.220000	6.271141
15.240000	9.075577
15.260000	8.954496
15.280000	8.511924
15.300000	1.888860
15.320000	-3.359902
15.340000	-2.815329
15.360000	-5.113781
15.380000	-8.454269
15.400000	-6.286843
15.420000	1.752176
15.440000	7.094614
15.460000	10.345622
15.480000	10.598157
15.500000	6.968133
15.520000	3.585563
15.540000	0.104673
15.560000	-2.896103
15.580000	-7.127307
15.600000	-8.274235
15.620000	-10.311811
15.640000	-16.767284
15.660000	-17.952896
15.680000	-12.972911
15.700000	-8.655121
15.720000	-5.730266
15.740000	2.956837
15.760000	11.269540
15.780000	14.102600
15.800000	12.043084
15.820000	5.132438
15.840000	3.106453
15.860000	2.609832
15.880000	1.469285
15.900000	2.294073
15.920000	3.604459
15.940000	3.195389
15.960000	-0.419645
15.980000	0.967018
16.000000	-0.099473
16.020000	-2.160015
16.040000	2.852902
16.060000	6.272324
16.080000	6.870003
16.100000	2.611650
16.120000	-1.392780
16.140000	-2.712372
16.160000	-4.172759
16.180000	-3.177676
16.200000	0.426769
16.220000	4.542258
16.240000	3.866086
16.260000	-1.117350
16.280000	-9.528975
16.300000	-14.992257
16.320000	-14.140995
16.340000	-10.595050
16.360000	-4.940648
16.380000	1.480035
16.400000	7.465286
16.420000	7.616968
16.440000	7.385290
16.460000	6.743914
16.480000	2.206832
16.500000	-0.518045
16.520000	-4.327166
16.540000	-3.111971
16.560000	1.384154
16.580000	1.876918
16.600000	4.185360
16.620000	6.681779
16.640000	8.333919
16.660000	9.417376
16.680000	9.348016
16.700000	8.922234
16.720000	5.541990
16.740000	2.006700
16.760000	-0.971817
16.780000	-5.555568
16.800000	-11.180845
16.820000	-14.857482
16.840000	-12.783177
16.860000	-12.514428
16.880000	-9.723912
16.900000	-0.916641
16.920000	1.839408
16.940000	3.014792
16.960000	5.009359
16.980000	6.442323
17.000000	6.465051
17.020000	4.023077
17.040000	0.813532
17.060000	-5.567870
17.080000	-6.047574
17.100000	-1.011396
17.120000	0.656917
17.140000	3.187638
17.160000	7.411368
17.180000	7.581937
17.200000	2.859036
17.220000	-2.267031
17.240000	-7.921930
17.260000	-13.202464
17.280000	-13.241535
17.300000	-9.552855
17.320000	-4.524566
17.340000	2.068880
17.360000	8.605850
17.380000	12.938519
17.400000	11.367906
17.420000	6.989738
17.440000	2.845421
17.460000	-3.049434
17.480000	-6.040755
17.500000	-5.818396
17.520000	-5.198685
17.540000	-4.994619
17.560000	-3.742201
17.580000	-0.437503
17.600000	3.268725
17.620000	6.018903
17.640000	7.583686
17.660000	7.860918
17.680000	3.983610
17.700000	1.760021
17.720000	0.444768
17.740000	-1.306422
17.760000	1.638829
17.780000	4.982506
17.800000	4.835601
17.820000	1.056613
17.840000	1.301737
17.860000	0.653098
17.880000	-4.007435
17.900000	-6.035492
17.920000	-8.440013
17.940000	-8.223135
17.960000	-7.413020
17.980000	-6.306420
18.000000	-5.985048
18.020000	-6.459743
18.040000	-2.728479
18.060000	-0.713003
18.080000	1.998947
18.100000	7.611347
18.120000	11.458081
18.140000	11.879418
18.160000	9.565670
18.180000	3.578372
18.200000	-0.669885
18.220000	0.592058
18.240000	-3.939809
18.260000	-6.940353
18.280000	-0.718276
18.300000	4.479275
18.320000	3.386915
18.340000	1.166652
18.360000	2.626763
18.380000	0.317529
18.400000	-1.292629
18.420000	0.606251
18.440000	-1.993920
18.460000	-3.646744
18.480000	-0.437035
18.500000	1.982085
18.520000	0.848214
18.540000	-2.789399
18.560000	-7.371649
18.580000	-9.922502
18.600000	-10.451917
18.620000	-8.133323
18.640000	-4.629001
18.660000	-3.318967
18.680000	-1.047016
18.700000	2.246760
18.720000	5.765602
18.740000	11.059922
18.760000	14.636117
18.780000	13.350662
18.800000	8.596516
18.820000	4.182821
18.840000	2.161884
18.860000	-2.641064
18.880000	-6.304779
18.900000	-5.288210
18.920000	-0.651175
18.940000	6.015282
18.960000	4.342063
18.980000	2.751345
19.000000	2.699103
19.020000	-1.992810
19.040000	-4.673787
19.060000	-8.934258
19.080000	-12.408270
19.100000	-9.513352
19.120000	-1.156792
19.140000	4.214627
19.160000	3.683589
19.180000	3.902674
19.200000	4.806563
19.220000	4.446209
19.240000	0.661644
19.260000	-3.213377
19.280000	-5.171937
19.300000	-1.832792
19.320000	0.449235
19.340000	-3.820823
19.360000	-3.856633
19.380000	-5.785464
19.400000	-4.604372
19.420000	2.415494
19.440000	2.028279
19.460000	-0.946954
19.480000	0.263019
19.500000	9.605487
19.520000	14.162414
19.540000	10.044921
19.560000	8.595857
19.580000	4.242278
19.600000	-0.932056
19.620000	-5.187245
19.640000	-9.454977
19.660000	-7.601723
19.680000	-1.511700
19.700000	3.038326
19.720000	3.516896
19.740000	0.428096
19.760000	-0.804921
19.780000	1.279821
19.800000	1.553884
19.820000	0.029798
19.840000	-1.911447
19.860000	-0.818501
19.880000	1.166665
19.900000	2.407863
19.920000	3.808828
