Tiempo(s)	Amplitud(mm)
# npts=18501
# fs=50.0000 Hz
# duracion=370.0000 s

0.000000	0.000029
0.020000	0.000030
0.040000	0.000035
0.060000	0.000046
0.080000	0.000067
0.100000	0.000099
0.120000	0.000142
0.140000	0.000198
0.160000	0.000266
0.180000	0.000345
0.200000	0.000437
0.220000	0.000540
0.240000	0.000654
0.260000	0.000777
0.280000	0.000909
0.300000	0.001049
0.320000	0.001197
0.340000	0.001351
0.360000	0.001511
0.380000	0.001676
0.400000	0.001845
0.420000	0.002018
0.440000	0.002195
0.460000	0.002374
0.480000	0.002555
0.500000	0.002738
0.520000	0.002923
0.540000	0.003108
0.560000	0.003295
0.580000	0.003482
0.600000	0.003670
0.620000	0.003858
0.640000	0.004047
0.660000	0.004235
0.680000	0.004423
0.700000	0.004612
0.720000	0.004800
0.740000	0.004987
0.760000	0.005175
0.780000	0.005362
0.800000	0.005549
0.820000	0.005736
0.840000	0.005923
0.860000	0.006108
0.880000	0.006294
0.900000	0.006480
0.920000	0.006665
0.940000	0.006849
0.960000	0.007034
0.980000	0.007218
1.000000	0.007402
1.020000	0.007586
1.040000	0.007769
1.060000	0.007952
1.080000	0.008134
1.100000	0.008317
1.120000	0.008499
1.140000	0.008680
1.160000	0.008862
1.180000	0.009043
1.200000	0.009224
1.220000	0.009404
1.240000	0.009584
1.260000	0.009764
1.280000	0.009944
1.300000	0.010123
1.320000	0.010302
1.340000	0.010480
1.360000	0.010659
1.380000	0.010837
1.400000	0.011013
1.420000	0.011191
1.440000	0.011368
1.460000	0.011543
1.480000	0.011719
1.500000	0.011894
1.520000	0.012069
1.540000	0.012243
1.560000	0.012417
1.580000	0.012592
1.600000	0.012763
1.620000	0.012936
1.640000	0.013111
1.660000	0.013280
1.680000	0.013450
1.700000	0.013625
1.720000	0.013793
1.740000	0.013960
1.760000	0.014131
1.780000	0.014300
1.800000	0.014468
1.820000	0.014634
1.840000	0.014804
1.860000	0.014970
1.880000	0.015134
1.900000	0.015304
1.920000	0.015467
1.940000	0.015626
1.960000	0.015795
1.980000	0.015957
2.000000	0.016115
2.020000	0.016277
2.040000	0.016440
2.060000	0.016599
2.080000	0.016756
2.100000	0.016919
2.120000	0.017081
2.140000	0.017231
2.160000	0.017392
2.180000	0.017559
2.200000	0.017697
2.220000	0.017850
2.240000	0.018019
2.260000	0.018152
2.280000	0.018304
2.300000	0.018469
2.320000	0.018615
2.340000	0.018763
2.360000	0.018909
2.380000	0.019076
2.400000	0.019219
2.420000	0.019349
2.440000	0.019515
2.460000	0.019655
2.480000	0.019780
2.500000	0.019945
2.520000	0.020082
2.540000	0.020200
2.560000	0.020367
2.580000	0.020514
2.600000	0.020636
2.620000	0.020768
2.640000	0.020925
2.660000	0.021065
2.680000	0.021154
2.700000	0.021311
2.720000	0.021470
2.740000	0.021560
2.760000	0.021715
2.780000	0.021867
2.800000	0.021966
2.820000	0.022108
2.840000	0.022252
2.860000	0.022374
2.880000	0.022486
2.900000	0.022616
2.920000	0.022797
2.940000	0.022883
2.960000	0.022963
2.980000	0.023157
3.000000	0.023250
3.020000	0.023321
3.040000	0.023487
3.060000	0.023601
3.080000	0.023689
3.100000	0.023834
3.120000	0.023969
3.140000	0.024054
3.160000	0.024113
3.180000	0.024289
3.200000	0.024468
3.220000	0.024415
3.240000	0.024596
3.260000	0.024840
3.280000	0.024732
3.300000	0.024895
3.320000	0.025072
3.340000	0.025068
3.360000	0.025148
3.380000	0.025230
3.400000	0.025418
3.420000	0.025387
3.440000	0.025492
3.460000	0.025779
3.480000	0.025676
3.500000	0.025806
3.520000	0.026098
3.540000	0.026024
3.560000	0.026110
3.580000	0.026398
3.600000	0.026448
3.620000	0.026443
3.640000	0.026605
3.660000	0.026688
3.680000	0.026669
3.700000	0.026716
3.720000	0.026928
3.740000	0.027040
3.760000	0.026807
3.780000	0.027068
3.800000	0.027284
3.820000	0.026920
3.840000	0.027299
3.860000	0.027470
3.880000	0.027183
3.900000	0.027580
3.920000	0.027754
3.940000	0.027798
3.960000	0.027724
3.980000	0.027802
4.000000	0.028283
4.020000	0.027848
4.040000	0.027917
4.060000	0.028463
4.080000	0.028053
4.100000	0.028071
4.120000	0.028229
4.140000	0.028100
4.160000	0.028123
4.180000	0.028173
4.200000	0.028531
4.220000	0.028436
4.240000	0.028249
4.260000	0.029025
4.280000	0.028881
4.300000	0.028310
4.320000	0.029197
4.340000	0.029133
4.360000	0.028625
4.380000	0.029078
4.400000	0.028880
4.420000	0.028760
4.440000	0.028718
4.460000	0.028737
4.480000	0.029119
4.500000	0.028819
4.520000	0.029135
4.540000	0.029867
4.560000	0.029122
4.580000	0.029239
4.600000	0.030167
4.620000	0.029250
4.640000	0.028909
4.660000	0.029321
4.680000	0.029128
4.700000	0.029124
4.720000	0.028972
4.740000	0.029296
4.760000	0.028922
4.780000	0.028401
4.800000	0.029229
4.820000	0.028444
4.840000	0.027864
4.860000	0.029203
4.880000	0.028644
4.900000	0.027950
4.920000	0.028965
4.940000	0.029051
4.960000	0.028976
4.980000	0.028840
5.000000	0.028985
5.020000	0.029475
5.040000	0.028190
5.060000	0.028567
5.080000	0.029352
5.100000	0.027819
5.120000	0.028507
5.140000	0.029247
5.160000	0.028108
5.180000	0.028249
5.200000	0.028854
5.220000	0.029153
5.240000	0.028751
5.260000	0.028863
5.280000	0.029817
5.300000	0.028593
5.320000	0.028403
5.340000	0.029550
5.360000	0.028064
5.380000	0.027681
5.400000	0.029385
5.420000	0.028467
5.440000	0.026988
5.460000	0.028756
5.480000	0.029537
5.500000	0.028572
5.520000	0.028051
5.540000	0.028247
5.560000	0.028065
5.580000	0.026394
5.600000	0.028173
5.620000	0.028053
5.640000	0.025143
5.660000	0.027928
5.680000	0.029455
5.700000	0.027416
5.720000	0.027523
5.740000	0.029221
5.760000	0.028738
5.780000	0.027525
5.800000	0.028320
5.820000	0.028594
5.840000	0.027055
5.860000	0.026712
5.880000	0.028378
5.900000	0.024799
5.920000	0.024101
5.940000	0.027982
5.960000	0.024349
5.980000	0.024057
6.000000	0.026767
6.020000	0.026183
6.040000	0.026862
6.060000	0.026436
6.080000	0.027665
6.100000	0.027877
6.120000	0.026317
6.140000	0.029126
6.160000	0.027894
6.180000	0.024865
6.200000	0.027758
6.220000	0.027651
6.240000	0.025097
6.260000	0.025559
6.280000	0.026665
6.300000	0.026512
6.320000	0.026485
6.340000	0.027224
6.360000	0.027732
6.380000	0.026818
6.400000	0.026333
6.420000	0.027594
6.440000	0.024502
6.460000	0.024204
6.480000	0.027008
6.500000	0.023381
6.520000	0.023528
6.540000	0.025138
6.560000	0.023722
6.580000	0.023086
6.600000	0.021891
6.620000	0.025032
6.640000	0.024607
6.660000	0.021845
6.680000	0.026727
6.700000	0.025400
6.720000	0.022424
6.740000	0.027958
6.760000	0.027987
6.780000	0.024668
6.800000	0.025224
6.820000	0.027176
6.840000	0.025575
6.860000	0.022011
6.880000	0.024482
6.900000	0.026091
6.920000	0.021859
6.940000	0.021957
6.960000	0.026393
6.980000	0.022244
7.000000	0.021326
7.020000	0.024035
7.040000	0.020440
7.060000	0.021789
7.080000	0.023146
7.100000	0.023506
7.120000	0.022194
7.140000	0.022689
7.160000	0.029821
7.180000	0.024608
7.200000	0.017304
7.220000	0.022150
7.240000	0.019489
7.260000	0.012521
7.280000	0.019904
7.300000	0.020391
7.320000	0.013962
7.340000	0.021934
7.360000	0.023829
7.380000	0.022395
7.400000	0.022493
7.420000	0.024252
7.440000	0.027805
7.460000	0.019465
7.480000	0.022451
7.500000	0.028852
7.520000	0.019858
7.540000	0.022923
7.560000	0.028374
7.580000	0.022042
7.600000	0.021024
7.620000	0.022325
7.640000	0.022222
7.660000	0.017730
7.680000	0.018233
7.700000	0.025402
7.720000	0.017615
7.740000	0.016313
7.760000	0.027172
7.780000	0.022146
7.800000	0.020670
7.820000	0.024569
7.840000	0.020872
7.860000	0.019884
7.880000	0.019421
7.900000	0.021288
7.920000	0.018242
7.940000	0.013546
7.960000	0.019227
7.980000	0.017988
8.000000	0.008006
8.020000	0.015494
8.040000	0.021508
8.060000	0.012024
8.080000	0.015663
8.100000	0.019604
8.120000	0.014127
8.140000	0.017027
8.160000	0.019272
8.180000	0.017069
8.200000	0.015031
8.220000	0.015649
8.240000	0.022433
8.260000	0.016282
8.280000	0.013751
8.300000	0.023443
8.320000	0.014544
8.340000	0.010725
8.360000	0.018874
8.380000	0.014070
8.400000	0.010447
8.420000	0.010366
8.440000	0.010458
8.460000	0.010564
8.480000	0.004634
8.500000	0.007494
8.520000	0.009368
8.540000	0.001881
8.560000	0.009874
8.580000	0.012972
8.600000	0.003209
8.620000	0.009475
8.640000	0.013165
8.660000	0.007090
8.680000	0.004252
8.700000	0.006984
8.720000	0.008861
8.740000	0.001856
8.760000	0.001682
8.780000	0.006344
8.800000	0.001463
8.820000	0.001074
8.840000	0.010621
8.860000	0.004314
8.880000	-0.000373
8.900000	0.011871
8.920000	0.009086
8.940000	0.003691
8.960000	0.003795
8.980000	0.007471
9.000000	0.005563
9.020000	-0.005114
9.040000	0.008683
9.060000	0.006791
9.080000	-0.007200
9.100000	0.007521
9.120000	0.008311
9.140000	-0.003989
9.160000	0.002408
9.180000	0.007062
9.200000	0.002834
9.220000	0.001469
9.240000	0.002630
9.260000	0.006757
9.280000	-0.003393
9.300000	-0.000350
9.320000	0.007316
9.340000	-0.007535
9.360000	-0.002882
9.380000	0.002451
9.400000	-0.009696
9.420000	-0.009302
9.440000	0.001481
9.460000	0.000569
9.480000	-0.006043
9.500000	0.000304
9.520000	0.004467
9.540000	-0.003844
9.560000	-0.005292
9.580000	0.004363
9.600000	-0.002211
9.620000	-0.012337
9.640000	0.001217
9.660000	-0.003965
9.680000	-0.014565
9.700000	0.002169
9.720000	0.001677
9.740000	-0.008784
9.760000	-0.007659
9.780000	-0.006137
9.800000	-0.002690
9.820000	-0.009124
9.840000	-0.006504
9.860000	0.001863
9.880000	-0.010356
9.900000	-0.003157
9.920000	0.007231
9.940000	-0.007040
9.960000	-0.009217
9.980000	-0.003572
10.000000	-0.042173
10.020000	-0.110063
10.040000	-0.291357
10.060000	-0.818545
10.080000	-1.728828
10.100000	-2.891958
10.120000	-4.480043
10.140000	-6.707888
10.160000	-6.631610
10.180000	-2.158065
10.200000	3.746813
10.220000	6.838123
10.240000	4.496428
10.260000	1.352596
10.280000	1.807075
10.300000	4.093486
10.320000	4.481957
10.340000	2.140470
10.360000	1.446748
10.380000	1.304074
10.400000	1.455795
10.420000	1.984478
10.440000	-0.003175
10.460000	0.134593
10.480000	-0.835989
10.500000	-2.640293
10.520000	-0.469380
10.540000	0.434281
10.560000	2.613026
10.580000	0.414307
10.600000	-2.569147
10.620000	-1.009857
10.640000	-2.607232
10.660000	-2.335617
10.680000	-4.668592
10.700000	-4.984054
10.720000	1.681691
10.740000	4.832113
10.760000	2.433383
10.780000	1.906222
10.800000	2.328771
10.820000	-2.711516
10.840000	-1.682062
10.860000	3.278711
10.880000	4.624107
10.900000	6.438773
10.920000	6.842322
10.940000	0.389237
10.960000	-4.996723
10.980000	-2.039144
11.000000	-2.195830
11.020000	-0.655666
11.040000	0.554795
11.060000	-2.138251
11.080000	-2.620178
11.100000	-8.954461
11.120000	-10.871868
11.140000	-4.891439
11.160000	-3.435507
11.180000	-0.390648
11.200000	8.042219
11.220000	6.337663
11.240000	-1.724335
11.260000	-0.500967
11.280000	-0.411369
11.300000	-2.601660
11.320000	0.436490
11.340000	3.737989
11.360000	0.875990
11.380000	-1.350440
11.400000	1.667536
11.420000	1.341679
11.440000	2.340956
11.460000	5.566261
11.480000	3.062411
11.500000	0.109840
11.520000	4.037710
11.540000	4.525040
11.560000	-2.259208
11.580000	-3.353684
11.600000	-0.361553
11.620000	-0.435834
11.640000	-1.975046
11.660000	-3.942569
11.680000	-3.805115
11.700000	-1.160865
11.720000	-2.426373
11.740000	-2.595595
11.760000	2.898407
11.780000	3.497336
11.800000	0.806508
11.820000	1.697012
11.840000	2.315530
11.860000	3.334442
11.880000	1.035438
11.900000	-4.663468
11.920000	-5.117991
11.940000	-0.599392
11.960000	3.707719
11.980000	1.973201
12.000000	0.942108
12.020000	-0.141620
12.040000	-2.534629
12.060000	-0.908349
12.080000	0.293727
12.100000	0.718319
12.120000	-1.696178
12.140000	-1.589861
12.160000	2.818798
12.180000	3.496446
12.200000	3.334974
12.220000	2.636284
12.240000	-2.154234
12.260000	-1.702252
12.280000	0.311360
12.300000	-0.654021
12.320000	-0.994176
12.340000	-3.679504
12.360000	-1.545001
12.380000	-0.185049
12.400000	-1.147818
12.420000	1.404382
12.440000	-0.915994
12.460000	-1.499226
12.480000	1.538677
12.500000	-1.788548
12.520000	-3.035522
12.540000	-3.833052
12.560000	-1.362228
12.580000	6.680629
12.600000	2.961837
12.620000	4.970377
12.640000	11.016880
12.660000	1.583968
12.680000	-2.558906
12.700000	-3.506039
12.720000	-9.678924
12.740000	-8.592123
12.760000	-2.209183
12.780000	1.385107
12.800000	-2.855293
12.820000	-5.742454
12.840000	-5.307802
12.860000	-4.939006
12.880000	0.007794
12.900000	2.235592
12.920000	4.698294
12.940000	4.200355
12.960000	1.622830
12.980000	5.907298
13.000000	5.454968
13.020000	3.877021
13.040000	2.740606
13.060000	0.051291
13.080000	4.402810
13.100000	9.002299
13.120000	12.212227
13.140000	8.155186
13.160000	1.899601
13.180000	3.084613
13.200000	-4.124552
13.220000	-9.575527
13.240000	-5.028170
13.260000	-3.359798
13.280000	-8.004629
13.300000	-6.206540
13.320000	1.329005
13.340000	-2.340785
13.360000	-5.741522
13.380000	-2.056102
13.400000	-3.058131
13.420000	-4.521502
13.440000	-0.871137
13.460000	-3.367474
13.480000	-1.093518
13.500000	0.992388
13.520000	-5.575467
13.540000	1.762374
13.560000	5.752390
13.580000	-1.331638
13.600000	-1.932921
13.620000	3.100490
13.640000	1.770084
13.660000	-1.246778
13.680000	4.672084
13.700000	3.276598
13.720000	1.609974
13.740000	7.738293
13.760000	3.882963
13.780000	-1.529356
13.800000	0.578036
13.820000	-2.586516
13.840000	-3.649539
13.860000	-1.078865
13.880000	-1.528819
13.900000	1.165512
13.920000	3.609708
13.940000	5.249293
13.960000	1.985031
13.980000	-1.971878
14.000000	-2.791993
14.020000	-3.893550
14.040000	-2.617698
14.060000	-1.973666
14.080000	3.013133
14.100000	2.015664
14.120000	-7.246764
14.140000	-8.573661
14.160000	-6.435118
14.180000	-3.396441
14.200000	0.924381
14.220000	5.028251
14.240000	4.444573
14.260000	2.060442
14.280000	5.309307
14.300000	4.827506
14.320000	2.404023
14.340000	4.200312
14.360000	2.336568
14.380000	-0.490031
14.400000	4.232503
14.420000	4.801943
14.440000	-0.248898
14.460000	1.466625
14.480000	2.154923
14.500000	2.240998
14.520000	5.531841
14.540000	0.800434
14.560000	-5.888481
14.580000	-3.134373
14.600000	-3.253959
14.620000	-7.390129
14.640000	-5.463161
14.660000	-5.898076
14.680000	-3.232062
14.700000	3.332117
14.720000	-4.392991
14.740000	-8.073627
14.760000	-1.274995
14.780000	-2.653630
14.800000	-0.232196
14.820000	7.228804
14.840000	5.571881
14.860000	-0.821775
14.880000	1.597929
14.900000	8.051337
14.920000	5.387651
14.940000	1.613807
14.960000	1.272490
14.980000	-2.935082
15.000000	-0.177399
15.020000	5.083381
15.040000	-0.414349
15.060000	-1.562195
15.080000	-5.272693
15.100000	-13.737632
15.120000	-7.812065
15.140000	0.416611
15.160000	-0.487814
15.180000	-0.723370
15.200000	0.504151
15.220000	1.755788
15.240000	2.535732
15.260000	2.194335
15.280000	1.728176
15.300000	0.510777
15.320000	2.524706
15.340000	4.948388
15.360000	5.325926
15.380000	5.165845
15.400000	5.084613
15.420000	5.077691
15.440000	1.918513
15.460000	-2.169425
15.480000	-1.450413
15.500000	-3.439568
15.520000	-5.641645
15.540000	-3.302100
15.560000	-6.517373
15.580000	-3.636408
15.600000	2.623302
15.620000	-0.782368
15.640000	-3.057433
15.660000	0.268618
15.680000	0.609417
15.700000	-0.797088
15.720000	3.379140
15.740000	3.057813
15.760000	-2.002056
15.780000	-1.636079
15.800000	0.124512
15.820000	2.244108
15.840000	4.272601
15.860000	0.614290
15.880000	-2.758991
15.900000	-0.862827
15.920000	1.844792
15.940000	-0.559565
15.960000	-3.727880
15.980000	-3.194508
16.000000	-2.009018
16.020000	3.011905
16.040000	3.532692
16.060000	0.649328
16.080000	1.093888
16.100000	0.845727
16.120000	-1.534286
16.140000	-1.414473
16.160000	0.354202
16.180000	-4.130205
16.200000	-0.646176
16.220000	4.633492
16.240000	2.877697
16.260000	5.094889
16.280000	2.214615
16.300000	-3.782326
16.320000	-2.806831
16.340000	-5.060221
16.360000	-9.766559
16.380000	-1.267763
16.400000	7.038271
16.420000	6.725590
16.440000	6.017307
16.460000	1.341802
16.480000	-1.532546
16.500000	-2.142199
16.520000	-4.376186
16.540000	-1.978678
16.560000	0.821687
16.580000	1.293601
16.600000	2.320892
16.620000	1.334236
16.640000	0.461065
16.660000	0.167246
16.680000	-0.415525
16.700000	-3.400969
16.720000	-4.601274
16.740000	-1.876299
16.760000	-1.261733
16.780000	0.703156
16.800000	1.647584
16.820000	-1.080674
16.840000	-1.420635
16.860000	1.145746
16.880000	0.180399
16.900000	-0.526915
16.920000	1.346329
16.940000	0.036522
16.960000	-2.633222
16.980000	-6.177875
17.000000	-3.944989
17.020000	2.110876
17.040000	0.817535
17.060000	-0.716039
17.080000	0.837343
17.100000	1.291036
17.120000	1.463546
17.140000	1.560708
17.160000	2.350537
17.180000	1.797025
17.200000	1.926137
17.220000	4.432099
17.240000	4.277981
17.260000	-0.319592
17.280000	-1.797584
17.300000	1.695857
17.320000	0.386345
17.340000	0.685416
17.360000	3.798679
17.380000	2.307291
17.400000	-0.677212
17.420000	-1.449553
17.440000	-0.479518
17.460000	-0.695557
17.480000	2.880883
17.500000	2.998088
17.520000	-2.436375
17.540000	-2.427848
17.560000	1.702256
17.580000	2.758007
17.600000	-2.770475
17.620000	-3.753875
17.640000	-1.161858
17.660000	-4.711820
17.680000	-6.195434
17.700000	-0.426223
17.720000	1.813812
17.740000	-1.617913
17.760000	0.620710
17.780000	0.173162
17.800000	-4.867782
17.820000	-1.722096
17.840000	-0.575762
17.860000	-2.641524
17.880000	2.551086
17.900000	2.455086
17.920000	-1.553343
17.940000	4.887654
17.960000	7.354087
17.980000	2.331348
18.000000	-1.197488
18.020000	-1.573664
18.040000	0.934933
18.060000	-0.145608
18.080000	3.877080
18.100000	4.475760
18.120000	0.881995
18.140000	5.086943
18.160000	-1.203834
18.180000	-5.958301
18.200000	-0.441276
18.220000	-2.146903
18.240000	-2.534072
18.260000	-0.939766
18.280000	0.397667
18.300000	3.919012
18.320000	-0.841827
18.340000	-5.107243
18.360000	-5.980594
18.380000	-6.936979
18.400000	-0.055257
18.420000	5.368448
18.440000	3.677777
18.460000	1.389513
18.480000	1.994423
18.500000	-0.579243
18.520000	-2.520593
18.540000	4.874973
18.560000	5.466521
18.580000	-0.774192
18.600000	-0.037333
18.620000	0.714789
18.640000	2.257984
18.660000	5.546217
18.680000	2.218069
18.700000	-1.958173
18.720000	-1.575504
18.740000	-2.295045
18.760000	-6.798014
18.780000	-5.643196
18.800000	-2.631251
18.820000	-3.426372
18.840000	-1.160296
18.860000	-2.737168
18.880000	-2.431982
18.900000	0.513287
18.920000	-2.551800
18.940000	-1.774180
18.960000	1.605698
18.980000	2.965201
19.000000	3.342879
19.020000	0.925991
19.040000	2.171764
19.060000	5.699528
19.080000	2.769787
19.100000	2.870451
19.120000	6.391174
19.140000	3.099162
19.160000	-0.064844
19.180000	-2.220839
19.200000	-4.921796
19.220000	-5.152497
19.240000	-3.569977
19.260000	-1.888956
19.280000	-1.728594
19.300000	0.315238
19.320000	-0.475253
19.340000	-0.876496
19.360000	0.521008
19.380000	0.782676
19.400000	0.924690
19.420000	-1.417536
19.440000	0.313110
19.460000	0.358988
19.480000	-1.548918
19.500000	-2.156811
19.520000	-2.919526
19.540000	-0.165842
19.560000	4.443975
19.580000	5.840300
19.600000	1.812283
19.620000	-0.526581
19.640000	-2.387595
19.660000	-3.236077
19.680000	0.863836
19.700000	1.119038
19.720000	-1.697943
19.740000	-0.781634
19.760000	1.393584
19.780000	1.998096
19.800000	-1.057265
19.820000	-0.525057
19.840000	3.917018
19.860000	4.215988
19.880000	1.866892
19.900000	1.317777
19.920000	3.792069
19.940000	1.752210
19.960000	-3.701035
19.980000	-6.322399
20.000000	-2.923057
20.020000	0.197876
20.040000	-1.044347
20.060000	0.666474
20.080000	-0.767777
20.100000	-0.126555
