Tiempo(s)	Amplitud(mm)
# npts=18501
# fs=50.0000 Hz
# duracion=370.0000 s

0.000000	-0.000032
0.020000	-0.000032
0.040000	-0.000037
0.060000	-0.000048
0.080000	-0.000067
0.100000	-0.000097
0.120000	-0.000138
0.140000	-0.000190
0.160000	-0.000254
0.180000	-0.000330
0.200000	-0.000416
0.220000	-0.000513
0.240000	-0.000620
0.260000	-0.000736
0.280000	-0.000861
0.300000	-0.000993
0.320000	-0.001133
0.340000	-0.001278
0.360000	-0.001429
0.380000	-0.001585
0.400000	-0.001745
0.420000	-0.001908
0.440000	-0.002075
0.460000	-0.002244
0.480000	-0.002416
0.500000	-0.002589
0.520000	-0.002763
0.540000	-0.002939
0.560000	-0.003116
0.580000	-0.003293
0.600000	-0.003471
0.620000	-0.003649
0.640000	-0.003828
0.660000	-0.004006
0.680000	-0.004185
0.700000	-0.004363
0.720000	-0.004542
0.740000	-0.004720
0.760000	-0.004898
0.780000	-0.005076
0.800000	-0.005254
0.820000	-0.005431
0.840000	-0.005608
0.860000	-0.005785
0.880000	-0.005962
0.900000	-0.006138
0.920000	-0.006314
0.940000	-0.006490
0.960000	-0.006665
0.980000	-0.006840
1.000000	-0.007015
1.020000	-0.007190
1.040000	-0.007365
1.060000	-0.007539
1.080000	-0.007713
1.100000	-0.007887
1.120000	-0.008060
1.140000	-0.008234
1.160000	-0.008407
1.180000	-0.008579
1.200000	-0.008752
1.220000	-0.008924
1.240000	-0.009096
1.260000	-0.009267
1.280000	-0.009439
1.300000	-0.009611
1.320000	-0.009782
1.340000	-0.009954
1.360000	-0.010125
1.380000	-0.010295
1.400000	-0.010464
1.420000	-0.010632
1.440000	-0.010799
1.460000	-0.010967
1.480000	-0.011135
1.500000	-0.011302
1.520000	-0.011468
1.540000	-0.011633
1.560000	-0.011800
1.580000	-0.011966
1.600000	-0.012132
1.620000	-0.012297
1.640000	-0.012462
1.660000	-0.012626
1.680000	-0.012792
1.700000	-0.012958
1.720000	-0.013121
1.740000	-0.013283
1.760000	-0.013444
1.780000	-0.013604
1.800000	-0.013764
1.820000	-0.013926
1.840000	-0.014091
1.860000	-0.014250
1.880000	-0.014403
1.900000	-0.014560
1.920000	-0.014719
1.940000	-0.014878
1.960000	-0.015034
1.980000	-0.015185
2.000000	-0.015333
2.020000	-0.015484
2.040000	-0.015635
2.060000	-0.015784
2.080000	-0.015934
2.100000	-0.016080
2.120000	-0.016224
2.140000	-0.016380
2.160000	-0.016545
2.180000	-0.016712
2.200000	-0.016889
2.220000	-0.017051
2.240000	-0.017195
2.260000	-0.017329
2.280000	-0.017451
2.300000	-0.017575
2.320000	-0.017707
2.340000	-0.017836
2.360000	-0.017969
2.380000	-0.018102
2.400000	-0.018239
2.420000	-0.018395
2.440000	-0.018532
2.460000	-0.018628
2.480000	-0.018733
2.500000	-0.018881
2.520000	-0.019056
2.540000	-0.019246
2.560000	-0.019416
2.580000	-0.019541
2.600000	-0.019668
2.620000	-0.019802
2.640000	-0.019924
2.660000	-0.020025
2.680000	-0.020103
2.700000	-0.020207
2.720000	-0.020352
2.740000	-0.020513
2.760000	-0.020671
2.780000	-0.020831
2.800000	-0.020985
2.820000	-0.021057
2.840000	-0.021123
2.860000	-0.021258
2.880000	-0.021348
2.900000	-0.021428
2.920000	-0.021542
2.940000	-0.021608
2.960000	-0.021665
2.980000	-0.021756
3.000000	-0.021893
3.020000	-0.022072
3.040000	-0.022221
3.060000	-0.022370
3.080000	-0.022519
3.100000	-0.022668
3.120000	-0.022874
3.140000	-0.023026
3.160000	-0.023067
3.180000	-0.023042
3.200000	-0.022955
3.220000	-0.022904
3.240000	-0.022904
3.260000	-0.022869
3.280000	-0.022868
3.300000	-0.022997
3.320000	-0.023243
3.340000	-0.023534
3.360000	-0.023839
3.380000	-0.024125
3.400000	-0.024352
3.420000	-0.024431
3.440000	-0.024369
3.460000	-0.024382
3.480000	-0.024515
3.500000	-0.024577
3.520000	-0.024541
3.540000	-0.024497
3.560000	-0.024388
3.580000	-0.024498
3.600000	-0.024750
3.620000	-0.024715
3.640000	-0.024586
3.660000	-0.024563
3.680000	-0.024950
3.700000	-0.025611
3.720000	-0.025782
3.740000	-0.025549
3.760000	-0.025417
3.780000	-0.025139
3.800000	-0.024724
3.820000	-0.024460
3.840000	-0.024403
3.860000	-0.024619
3.880000	-0.024803
3.900000	-0.025047
3.920000	-0.025281
3.940000	-0.025588
3.960000	-0.026303
3.980000	-0.026976
4.000000	-0.027317
4.020000	-0.027322
4.040000	-0.027363
4.060000	-0.027418
4.080000	-0.027208
4.100000	-0.026981
4.120000	-0.026628
4.140000	-0.025898
4.160000	-0.025092
4.180000	-0.024545
4.200000	-0.024382
4.220000	-0.024367
4.240000	-0.024006
4.260000	-0.023752
4.280000	-0.023834
4.300000	-0.024318
4.320000	-0.025088
4.340000	-0.025808
4.360000	-0.026733
4.380000	-0.027274
4.400000	-0.027759
4.420000	-0.028765
4.440000	-0.029483
4.460000	-0.029802
4.480000	-0.029633
4.500000	-0.029140
4.520000	-0.028720
4.540000	-0.028072
4.560000	-0.027316
4.580000	-0.026158
4.600000	-0.024731
4.620000	-0.024050
4.640000	-0.024109
4.660000	-0.024186
4.680000	-0.024045
4.700000	-0.024551
4.720000	-0.024944
4.740000	-0.024320
4.760000	-0.024143
4.780000	-0.025068
4.800000	-0.026297
4.820000	-0.026509
4.840000	-0.026097
4.860000	-0.026352
4.880000	-0.026941
4.900000	-0.026825
4.920000	-0.026165
4.940000	-0.026312
4.960000	-0.026783
4.980000	-0.026526
5.000000	-0.026092
5.020000	-0.025745
5.040000	-0.024695
5.060000	-0.024048
5.080000	-0.024335
5.100000	-0.024091
5.120000	-0.024281
5.140000	-0.024847
5.160000	-0.025495
5.180000	-0.026709
5.200000	-0.027513
5.220000	-0.028035
5.240000	-0.027732
5.260000	-0.026638
5.280000	-0.025658
5.300000	-0.024475
5.320000	-0.023603
5.340000	-0.022773
5.360000	-0.021361
5.380000	-0.021514
5.400000	-0.024050
5.420000	-0.026689
5.440000	-0.027340
5.460000	-0.026861
5.480000	-0.027222
5.500000	-0.028194
5.520000	-0.029627
5.540000	-0.030248
5.560000	-0.029501
5.580000	-0.028538
5.600000	-0.027703
5.620000	-0.025060
5.640000	-0.020614
5.660000	-0.019391
5.680000	-0.020270
5.700000	-0.020496
5.720000	-0.021065
5.740000	-0.021773
5.760000	-0.020642
5.780000	-0.019587
5.800000	-0.021793
5.820000	-0.024635
5.840000	-0.028256
5.860000	-0.030626
5.880000	-0.031437
5.900000	-0.033221
5.920000	-0.033362
5.940000	-0.031311
5.960000	-0.026548
5.980000	-0.021581
6.000000	-0.020854
6.020000	-0.022908
6.040000	-0.022467
6.060000	-0.019907
6.080000	-0.016671
6.100000	-0.012060
6.120000	-0.012047
6.140000	-0.015852
6.160000	-0.016776
6.180000	-0.013983
6.200000	-0.011937
6.220000	-0.012761
6.240000	-0.014297
6.260000	-0.017750
6.280000	-0.020012
6.300000	-0.020549
6.320000	-0.024471
6.340000	-0.030896
6.360000	-0.035783
6.380000	-0.036997
6.400000	-0.035366
6.420000	-0.032525
6.440000	-0.030242
6.460000	-0.028618
6.480000	-0.028808
6.500000	-0.028442
6.520000	-0.024409
6.540000	-0.019539
6.560000	-0.014650
6.580000	-0.010550
6.600000	-0.006664
6.620000	-0.002730
6.640000	-0.001248
6.660000	-0.003870
6.680000	-0.008951
6.700000	-0.011285
6.720000	-0.012609
6.740000	-0.018938
6.760000	-0.026638
6.780000	-0.029366
6.800000	-0.029595
6.820000	-0.028829
6.840000	-0.027766
6.860000	-0.026760
6.880000	-0.021917
6.900000	-0.014796
6.920000	-0.012726
6.940000	-0.016002
6.960000	-0.018991
6.980000	-0.024171
7.000000	-0.027866
7.020000	-0.024307
7.040000	-0.019039
7.060000	-0.018353
7.080000	-0.023139
7.100000	-0.021914
7.120000	-0.013265
7.140000	-0.010045
7.160000	-0.010631
7.180000	-0.007762
7.200000	-0.003874
7.220000	0.001450
7.240000	0.004858
7.260000	0.001799
7.280000	0.000750
7.300000	-0.000159
7.320000	-0.004773
7.340000	-0.012618
7.360000	-0.024038
7.380000	-0.028270
7.400000	-0.023464
7.420000	-0.016807
7.440000	-0.011652
7.460000	-0.011750
7.480000	-0.018307
7.500000	-0.026915
7.520000	-0.030450
7.540000	-0.031660
7.560000	-0.034668
7.580000	-0.030196
7.600000	-0.020559
7.620000	-0.015446
7.640000	-0.012182
7.660000	-0.012797
7.680000	-0.011441
7.700000	-0.001431
7.720000	0.003181
7.740000	-0.000996
7.760000	-0.004270
7.780000	-0.007302
7.800000	-0.008846
7.820000	-0.006133
7.840000	-0.004799
7.860000	-0.002825
7.880000	-0.002908
7.900000	-0.006974
7.920000	-0.007736
7.940000	-0.008931
7.960000	-0.011418
7.980000	-0.012414
8.000000	-0.011349
8.020000	-0.012277
8.040000	-0.015457
8.060000	-0.011740
8.080000	-0.004315
8.100000	0.000327
8.120000	-0.001120
8.140000	-0.012323
8.160000	-0.023658
8.180000	-0.024202
8.200000	-0.017631
8.220000	-0.007677
8.240000	0.000813
8.260000	-0.003863
8.280000	-0.011186
8.300000	-0.009659
8.320000	-0.015309
8.340000	-0.026166
8.360000	-0.029084
8.380000	-0.020384
8.400000	-0.006330
8.420000	-0.003821
8.440000	-0.008835
8.460000	-0.014917
8.480000	-0.015147
8.500000	-0.004873
8.520000	0.005715
8.540000	0.020639
8.560000	0.028067
8.580000	0.021427
8.600000	0.021703
8.620000	0.024757
8.640000	0.022736
8.660000	0.018031
8.680000	0.007797
8.700000	-0.001713
8.720000	-0.005275
8.740000	-0.005877
8.760000	-0.005885
8.780000	-0.012287
8.800000	-0.029382
8.820000	-0.045154
8.840000	-0.046826
8.860000	-0.036486
8.880000	-0.016543
8.900000	0.006510
8.920000	0.020410
8.940000	0.028798
8.960000	0.037817
8.980000	0.038187
9.000000	0.027541
9.020000	0.014927
9.040000	0.001815
9.060000	-0.006296
9.080000	-0.002646
9.100000	0.002356
9.120000	-0.001825
9.140000	-0.011904
9.160000	-0.024962
9.180000	-0.036240
9.200000	-0.036768
9.220000	-0.017446
9.240000	0.016008
9.260000	0.037947
9.280000	0.046431
9.300000	0.050443
9.320000	0.054748
9.340000	0.064703
9.360000	0.061911
9.380000	0.036779
9.400000	0.008452
9.420000	-0.012902
9.440000	-0.032150
9.460000	-0.039997
9.480000	-0.035105
9.500000	-0.034275
9.520000	-0.033299
9.540000	-0.024103
9.560000	-0.009949
9.580000	-0.000460
9.600000	-0.004009
9.620000	-0.005632
9.640000	0.013576
9.660000	0.037535
9.680000	0.042840
9.700000	0.040627
9.720000	0.038439
9.740000	0.035215
9.760000	0.028944
9.780000	0.017778
9.800000	0.009099
9.820000	-0.000778
9.840000	-0.006092
9.860000	-0.007718
9.880000	-0.012580
9.900000	-0.017877
9.920000	-0.022996
9.940000	-0.016800
9.960000	0.000826
9.980000	0.014622
10.000000	0.015182
10.020000	0.002642
10.040000	-0.046090
10.060000	-0.167868
10.080000	-0.388478
10.100000	-0.750679
10.120000	-1.323671
10.140000	-2.192377
10.160000	-3.416281
10.180000	-5.015359
10.200000	-6.889035
10.220000	-8.670194
10.240000	-9.751151
10.260000	-9.529694
10.280000	-7.750888
10.300000	-4.695360
10.320000	-1.032988
10.340000	2.614585
10.360000	5.954531
10.380000	8.882918
10.400000	11.304953
10.420000	13.088204
10.440000	14.043290
10.460000	14.094968
10.480000	13.314940
10.500000	11.683228
10.520000	9.293758
10.540000	6.554374
10.560000	3.889555
10.580000	1.427000
10.600000	-1.057393
10.620000	-3.736644
10.640000	-6.263236
10.660000	-7.878392
10.680000	-8.104476
10.700000	-7.295120
10.720000	-6.309164
10.740000	-5.582589
10.760000	-4.868872
10.780000	-3.903145
10.800000	-2.800003
10.820000	-1.836900
10.840000	-1.118365
10.860000	-0.524076
10.880000	0.038962
10.900000	0.571105
10.920000	1.171157
10.940000	1.930254
10.960000	2.888378
10.980000	3.956740
11.000000	4.619548
11.020000	4.466015
11.040000	3.672569
11.060000	2.654211
11.080000	1.564678
11.100000	0.212226
11.120000	-1.452948
11.140000	-3.194905
11.160000	-4.696820
11.180000	-5.723097
11.200000	-6.126334
11.220000	-5.748754
11.240000	-4.672229
11.260000	-3.384293
11.280000	-2.452337
11.300000	-2.044701
11.320000	-1.826859
11.340000	-1.320135
11.360000	-0.286477
11.380000	1.073869
11.400000	2.244109
11.420000	2.819405
11.440000	2.820545
11.460000	2.743157
11.480000	3.132582
11.500000	3.973352
11.520000	4.720093
11.540000	4.848152
11.560000	4.282734
11.580000	3.175186
11.600000	1.634275
11.620000	-0.212309
11.640000	-2.060919
11.660000	-3.366816
11.680000	-3.780386
11.700000	-3.285884
11.720000	-2.194958
11.740000	-1.118732
11.760000	-0.445766
11.780000	-0.145591
11.800000	-0.044078
11.820000	-0.222901
11.840000	-0.760029
11.860000	-1.278856
11.880000	-1.278320
11.900000	-0.622710
11.920000	0.204786
11.940000	0.582320
11.960000	0.433339
11.980000	0.160164
12.000000	0.193816
12.020000	0.590503
12.040000	0.974671
12.060000	0.989532
12.080000	0.729134
12.100000	0.468644
12.120000	0.258554
12.140000	-0.019721
12.160000	-0.411123
12.180000	-0.748960
12.200000	-0.754214
12.220000	-0.263347
12.240000	0.665606
12.260000	1.894546
12.280000	3.246346
12.300000	4.403507
12.320000	4.910155
12.340000	4.463717
12.360000	3.212872
12.380000	1.594381
12.400000	0.034667
12.420000	-1.339353
12.440000	-2.696910
12.460000	-4.116208
12.480000	-5.321665
12.500000	-5.880233
12.520000	-5.693612
12.540000	-5.031497
12.560000	-4.080391
12.580000	-2.718259
12.600000	-0.795772
12.620000	1.436923
12.640000	3.293624
12.660000	4.229747
12.680000	4.228152
12.700000	3.533670
12.720000	2.517573
12.740000	1.621373
12.760000	1.164487
12.780000	1.278060
12.800000	1.891623
12.820000	2.665975
12.840000	3.062620
12.860000	2.648601
12.880000	1.346674
12.900000	-0.440122
12.920000	-2.086312
12.940000	-3.293456
12.960000	-4.122050
12.980000	-4.668116
13.000000	-4.847750
13.020000	-4.418112
13.040000	-3.336482
13.060000	-1.887033
13.080000	-0.569519
13.100000	0.088090
13.120000	-0.033274
13.140000	-0.570857
13.160000	-1.006383
13.180000	-0.980347
13.200000	-0.437567
13.220000	0.474974
13.240000	1.596007
13.260000	2.838175
13.280000	4.029404
13.300000	4.942720
13.320000	5.469348
13.340000	5.589529
13.360000	5.317078
13.380000	4.526550
13.400000	3.028274
13.420000	0.880466
13.440000	-1.615199
13.460000	-4.088066
13.480000	-6.263459
13.500000	-7.979744
13.520000	-9.069464
13.540000	-9.301155
13.560000	-8.457427
13.580000	-6.525429
13.600000	-3.757747
13.620000	-0.702254
13.640000	1.935230
13.660000	3.641435
13.680000	4.275710
13.700000	4.101832
13.720000	3.503576
13.740000	2.792545
13.760000	2.239961
13.780000	2.006901
13.800000	2.102994
13.820000	2.287431
13.840000	2.314351
13.860000	2.169100
13.880000	1.885710
13.900000	1.472955
13.920000	0.928509
13.940000	0.323926
13.960000	-0.156653
13.980000	-0.365679
14.000000	-0.264629
14.020000	0.153485
14.040000	0.829086
14.060000	1.527962
14.080000	1.908285
14.100000	1.797964
14.120000	1.404000
14.140000	1.037354
14.160000	0.807619
14.180000	0.680616
14.200000	0.587817
14.220000	0.569477
14.240000	0.775375
14.260000	1.196655
14.280000	1.615333
14.300000	1.808342
14.320000	1.651795
14.340000	1.108917
14.360000	0.161316
14.380000	-1.124463
14.400000	-2.584384
14.420000	-4.028074
14.440000	-5.259317
14.460000	-6.178091
14.480000	-6.728517
14.500000	-6.759073
14.520000	-6.125322
14.540000	-4.910979
14.560000	-3.342363
14.580000	-1.611902
14.600000	0.113308
14.620000	1.609463
14.640000	2.716660
14.660000	3.494971
14.680000	4.032224
14.700000	4.309575
14.720000	4.167897
14.740000	3.530902
14.760000	2.522171
14.780000	1.316445
14.800000	0.081572
14.820000	-1.197953
14.840000	-2.484458
14.860000	-3.498942
14.880000	-4.008746
14.900000	-3.961371
14.920000	-3.493948
14.940000	-2.773399
14.960000	-1.794014
14.980000	-0.536628
15.000000	0.882102
15.020000	2.230583
15.040000	3.304707
15.060000	4.058897
15.080000	4.376551
15.100000	4.146036
15.120000	3.466924
15.140000	2.570587
15.160000	1.626607
15.180000	0.583313
15.200000	-0.546517
15.220000	-1.540975
15.240000	-2.113363
15.260000	-2.129626
15.280000	-1.719691
15.300000	-1.051359
15.320000	-0.252310
15.340000	0.524012
15.360000	1.066322
15.380000	1.160820
15.400000	0.766492
15.420000	0.040022
15.440000	-0.725069
15.460000	-1.159355
15.480000	-1.073072
15.500000	-0.509640
15.520000	0.444710
15.540000	1.633660
15.560000	2.851233
15.580000	3.887212
15.600000	4.572905
15.620000	4.939181
15.640000	5.036607
15.660000	4.725847
15.680000	3.907129
15.700000	2.608853
15.720000	0.951753
15.740000	-0.856660
15.760000	-2.698281
15.780000	-4.507667
15.800000	-6.186561
15.820000	-7.605709
15.840000	-8.639173
15.860000	-9.158711
15.880000	-9.007065
15.900000	-8.058075
15.920000	-6.298140
15.940000	-4.097668
15.960000	-1.946874
15.980000	-0.124998
16.000000	1.260456
16.020000	2.366880
16.040000	3.291719
16.060000	4.002834
16.080000	4.470991
16.100000	4.653983
16.120000	4.651279
16.140000	4.561788
16.160000	4.329115
16.180000	3.881048
16.200000	3.377920
16.220000	3.139643
16.240000	3.290648
16.260000	3.595182
16.280000	3.654301
16.300000	3.309141
16.320000	2.745449
16.340000	2.201976
16.360000	1.686830
16.380000	1.069715
16.400000	0.301713
16.420000	-0.633990
16.440000	-1.702424
16.460000	-2.837401
16.480000	-4.061570
16.500000	-5.270169
16.520000	-6.289175
16.540000	-6.941010
16.560000	-7.014700
16.580000	-6.434291
16.600000	-5.228526
16.620000	-3.642866
16.640000	-1.995361
16.660000	-0.492086
16.680000	0.743758
16.700000	1.731899
16.720000	2.503818
16.740000	3.033088
16.760000	3.286824
16.780000	3.292619
16.800000	3.104690
16.820000	2.818716
16.840000	2.572166
16.860000	2.384220
16.880000	2.160027
16.900000	1.760760
16.920000	1.101781
16.940000	0.261705
16.960000	-0.610929
16.980000	-1.355051
17.000000	-1.800376
17.020000	-1.882348
17.040000	-1.626658
17.060000	-1.122577
17.080000	-0.438200
17.100000	0.362679
17.120000	1.127396
17.140000	1.733193
17.160000	2.028871
17.180000	1.955712
17.200000	1.539496
17.220000	0.750262
17.240000	-0.311745
17.260000	-1.482264
17.280000	-2.566086
17.300000	-3.388629
17.320000	-3.905935
17.340000	-4.052434
17.360000	-3.765974
17.380000	-3.114359
17.400000	-2.197500
17.420000	-1.123754
17.440000	0.050815
17.460000	1.356487
17.480000	2.636049
17.500000	3.699582
17.520000	4.452743
17.540000	4.774220
17.560000	4.667951
17.580000	4.160277
17.600000	3.255564
17.620000	2.021704
17.640000	0.658201
17.660000	-0.539652
17.680000	-1.457911
17.700000	-2.084288
17.720000	-2.476821
17.740000	-2.811321
17.760000	-3.163527
17.780000	-3.539420
17.800000	-3.904152
17.820000	-4.080369
17.840000	-3.780208
17.860000	-2.904316
17.880000	-1.670089
17.900000	-0.325093
17.920000	0.933784
17.940000	2.043469
17.960000	3.035675
17.980000	3.845035
18.000000	4.470274
18.020000	4.896235
18.040000	4.955837
18.060000	4.636586
18.080000	4.070537
18.100000	3.332366
18.120000	2.434711
18.140000	1.236459
18.160000	-0.311317
18.180000	-1.961511
18.200000	-3.330206
18.220000	-4.116469
18.240000	-4.392360
18.260000	-4.405247
18.280000	-4.288733
18.300000	-4.085221
18.320000	-3.803320
18.340000	-3.491724
18.360000	-3.179895
18.380000	-2.748548
18.400000	-1.977997
18.420000	-0.871843
18.440000	0.287463
18.460000	1.177696
18.480000	1.711670
18.500000	2.019446
18.520000	2.158814
18.540000	2.168472
18.560000	2.059999
18.580000	1.932838
18.600000	2.013200
18.620000	2.297564
18.640000	2.624342
18.660000	2.990127
18.680000	3.532989
18.700000	4.176921
18.720000	4.533880
18.740000	4.224491
18.760000	3.164047
18.780000	1.631596
18.800000	0.110802
18.820000	-1.136804
18.840000	-2.209245
18.860000	-3.219677
18.880000	-4.213038
18.900000	-5.036488
18.920000	-5.418960
18.940000	-5.283020
18.960000	-4.576838
18.980000	-3.289993
19.000000	-1.611512
19.020000	0.094369
19.040000	1.453636
19.060000	2.350667
19.080000	2.944318
19.100000	3.465737
19.120000	3.975766
19.140000	4.327676
19.160000	4.343246
19.180000	3.943327
19.200000	3.103440
19.220000	1.833141
19.240000	0.210295
19.260000	-1.549460
19.280000	-3.041677
19.300000	-4.035975
19.320000	-4.550556
19.340000	-4.596643
19.360000	-4.215852
19.380000	-3.479034
19.400000	-2.526251
19.420000	-1.515991
19.440000	-0.550996
19.460000	0.278441
19.480000	0.995478
19.500000	1.669255
19.520000	2.260505
19.540000	2.695503
19.560000	2.891342
19.580000	2.761799
19.600000	2.275672
19.620000	1.493275
19.640000	0.682779
19.660000	0.146190
19.680000	-0.045145
19.700000	-0.073227
