Tiempo(s)	Amplitud(mm)
# npts=18501
# fs=50.0000 Hz
# duracion=370.0000 s

0.000000	0.000001
0.020000	0.000001
0.040000	0.000001
0.060000	0.000001
0.080000	0.000001
0.100000	0.000001
0.120000	0.000002
0.140000	0.000002
0.160000	0.000003
0.180000	0.000004
0.200000	0.000005
0.220000	0.000006
0.240000	0.000008
0.260000	0.000009
0.280000	0.000011
0.300000	0.000012
0.320000	0.000014
0.340000	0.000016
0.360000	0.000018
0.380000	0.000020
0.400000	0.000022
0.420000	0.000024
0.440000	0.000026
0.460000	0.000028
0.480000	0.000030
0.500000	0.000033
0.520000	0.000035
0.540000	0.000037
0.560000	0.000039
0.580000	0.000042
0.600000	0.000044
0.620000	0.000047
0.640000	0.000049
0.660000	0.000051
0.680000	0.000054
0.700000	0.000056
0.720000	0.000059
0.740000	0.000061
0.760000	0.000064
0.780000	0.000066
0.800000	0.000069
0.820000	0.000071
0.840000	0.000074
0.860000	0.000076
0.880000	0.000079
0.900000	0.000081
0.920000	0.000084
0.940000	0.000086
0.960000	0.000089
0.980000	0.000092
1.000000	0.000094
1.020000	0.000097
1.040000	0.000099
1.060000	0.000102
1.080000	0.000105
1.100000	0.000107
1.120000	0.000110
1.140000	0.000113
1.160000	0.000115
1.180000	0.000118
1.200000	0.000121
1.220000	0.000123
1.240000	0.000126
1.260000	0.000129
1.280000	0.000132
1.300000	0.000134
1.320000	0.000137
1.340000	0.000140
1.360000	0.000143
1.380000	0.000146
1.400000	0.000148
1.420000	0.000151
1.440000	0.000154
1.460000	0.000157
1.480000	0.000159
1.500000	0.000162
1.520000	0.000165
1.540000	0.000168
1.560000	0.000170
1.580000	0.000174
1.600000	0.000177
1.620000	0.000179
1.640000	0.000182
1.660000	0.000185
1.680000	0.000188
1.700000	0.000191
1.720000	0.000194
1.740000	0.000198
1.760000	0.000200
1.780000	0.000202
1.800000	0.000207
1.820000	0.000210
1.840000	0.000211
1.860000	0.000215
1.880000	0.000221
1.900000	0.000223
1.920000	0.000223
1.940000	0.000228
1.960000	0.000234
1.980000	0.000235
2.000000	0.000236
2.020000	0.000241
2.040000	0.000246
2.060000	0.000247
2.080000	0.000250
2.100000	0.000255
2.120000	0.000258
2.140000	0.000260
2.160000	0.000264
2.180000	0.000268
2.200000	0.000269
2.220000	0.000272
2.240000	0.000276
2.260000	0.000278
2.280000	0.000279
2.300000	0.000286
2.320000	0.000289
2.340000	0.000290
2.360000	0.000294
2.380000	0.000297
2.400000	0.000298
2.420000	0.000303
2.440000	0.000311
2.460000	0.000314
2.480000	0.000315
2.500000	0.000320
2.520000	0.000327
2.540000	0.000333
2.560000	0.000335
2.580000	0.000336
2.600000	0.000342
2.620000	0.000348
2.640000	0.000351
2.660000	0.000359
2.680000	0.000368
2.700000	0.000370
2.720000	0.000373
2.740000	0.000379
2.760000	0.000387
2.780000	0.000392
2.800000	0.000399
2.820000	0.000407
2.840000	0.000413
2.860000	0.000417
2.880000	0.000421
2.900000	0.000423
2.920000	0.000429
2.940000	0.000434
2.960000	0.000437
2.980000	0.000438
3.000000	0.000442
3.020000	0.000454
3.040000	0.000460
3.060000	0.000465
3.080000	0.000476
3.100000	0.000477
3.120000	0.000476
3.140000	0.000486
3.160000	0.000495
3.180000	0.000494
3.200000	0.000495
3.220000	0.000497
3.240000	0.000501
3.260000	0.000508
3.280000	0.000508
3.300000	0.000507
3.320000	0.000516
3.340000	0.000515
3.360000	0.000513
3.380000	0.000519
3.400000	0.000523
3.420000	0.000531
3.440000	0.000529
3.460000	0.000533
3.480000	0.000546
3.500000	0.000545
3.520000	0.000547
3.540000	0.000550
3.560000	0.000551
3.580000	0.000555
3.600000	0.000564
3.620000	0.000578
3.640000	0.000590
3.660000	0.000597
3.680000	0.000600
3.700000	0.000625
3.720000	0.000634
3.740000	0.000620
3.760000	0.000653
3.780000	0.000673
3.800000	0.000680
3.820000	0.000686
3.840000	0.000690
3.860000	0.000756
3.880000	0.000738
3.900000	0.000693
3.920000	0.000768
3.940000	0.000788
3.960000	0.000765
3.980000	0.000758
4.000000	0.000728
4.020000	0.000744
4.040000	0.000740
4.060000	0.000720
4.080000	0.000779
4.100000	0.000760
4.120000	0.000690
4.140000	0.000725
4.160000	0.000730
4.180000	0.000704
4.200000	0.000702
4.220000	0.000686
4.240000	0.000714
4.260000	0.000732
4.280000	0.000707
4.300000	0.000693
4.320000	0.000687
4.340000	0.000671
4.360000	0.000664
4.380000	0.000685
4.400000	0.000674
4.420000	0.000656
4.440000	0.000646
4.460000	0.000658
4.480000	0.000711
4.500000	0.000716
4.520000	0.000682
4.540000	0.000677
4.560000	0.000720
4.580000	0.000683
4.600000	0.000592
4.620000	0.000550
4.640000	0.000574
4.660000	0.000612
4.680000	0.000543
4.700000	0.000516
4.720000	0.000549
4.740000	0.000491
4.760000	0.000439
4.780000	0.000508
4.800000	0.000550
4.820000	0.000514
4.840000	0.000488
4.860000	0.000505
4.880000	0.000502
4.900000	0.000436
4.920000	0.000535
4.940000	0.000549
4.960000	0.000471
4.980000	0.000507
5.000000	0.000505
5.020000	0.000604
5.040000	0.000677
5.060000	0.000587
5.080000	0.000548
5.100000	0.000758
5.120000	0.000841
5.140000	0.000706
5.160000	0.000803
5.180000	0.000879
5.200000	0.000660
5.220000	0.000695
5.240000	0.001079
5.260000	0.001002
5.280000	0.000759
5.300000	0.000927
5.320000	0.000967
5.340000	0.000803
5.360000	0.000887
5.380000	0.000807
5.400000	0.000614
5.420000	0.000934
5.440000	0.000995
5.460000	0.000707
5.480000	0.000725
5.500000	0.000766
5.520000	0.000661
5.540000	0.000582
5.560000	0.000773
5.580000	0.000899
5.600000	0.000797
5.620000	0.000763
5.640000	0.000563
5.660000	0.000571
5.680000	0.000722
5.700000	0.000384
5.720000	0.000334
5.740000	0.000349
5.760000	0.000088
5.780000	0.000359
5.800000	0.000240
5.820000	-0.000119
5.840000	0.000041
5.860000	-0.000094
5.880000	-0.000021
5.900000	0.000179
5.920000	0.000008
5.940000	-0.000116
5.960000	0.000040
5.980000	0.000217
6.000000	-0.000153
6.020000	-0.000055
6.040000	0.000257
6.060000	-0.000090
6.080000	-0.000201
6.100000	-0.000352
6.120000	-0.000551
6.140000	-0.000426
6.160000	-0.000373
6.180000	-0.000274
6.200000	-0.000119
6.220000	0.000138
6.240000	0.000145
6.260000	-0.000251
6.280000	-0.000120
6.300000	0.000054
6.320000	-0.000110
6.340000	-0.000029
6.360000	-0.000066
6.380000	-0.000084
6.400000	0.000248
6.420000	0.000555
6.440000	0.000544
6.460000	0.000386
6.480000	0.000589
6.500000	0.001103
6.520000	0.001246
6.540000	0.001147
6.560000	0.001181
6.580000	0.001384
6.600000	0.001623
6.620000	0.001737
6.640000	0.002041
6.660000	0.002030
6.680000	0.001836
6.700000	0.001886
6.720000	0.001839
6.740000	0.002045
6.760000	0.001883
6.780000	0.001226
6.800000	0.001067
6.820000	0.001456
6.840000	0.001731
6.860000	0.001343
6.880000	0.000651
6.900000	0.000032
6.920000	0.000084
6.940000	0.000280
6.960000	-0.000141
6.980000	-0.000458
7.000000	-0.001153
7.020000	-0.001767
7.040000	-0.001607
7.060000	-0.001590
7.080000	-0.001774
7.100000	-0.001925
7.120000	-0.002327
7.140000	-0.002717
7.160000	-0.002834
7.180000	-0.003073
7.200000	-0.003072
7.220000	-0.003006
7.240000	-0.003101
7.260000	-0.002916
7.280000	-0.002677
7.300000	-0.002714
7.320000	-0.002837
7.340000	-0.002567
7.360000	-0.002079
7.380000	-0.001744
7.400000	-0.001646
7.420000	-0.001213
7.440000	-0.000878
7.460000	-0.001081
7.480000	-0.001127
7.500000	-0.001245
7.520000	-0.001220
7.540000	-0.001111
7.560000	-0.000731
7.580000	-0.000111
7.600000	-0.000009
7.620000	0.000323
7.640000	0.000481
7.660000	0.000244
7.680000	0.000496
7.700000	0.000893
7.720000	0.001406
7.740000	0.001661
7.760000	0.001310
7.780000	0.001271
7.800000	0.001441
7.820000	0.001097
7.840000	0.000669
7.860000	0.000406
7.880000	0.000601
7.900000	0.001316
7.920000	0.001476
7.940000	0.001308
7.960000	0.000782
7.980000	-0.000284
8.000000	-0.000507
8.020000	0.000091
8.040000	0.000450
8.060000	-0.000014
8.080000	-0.000989
8.100000	-0.001409
8.120000	-0.000958
8.140000	-0.000598
8.160000	-0.000660
8.180000	-0.000926
8.200000	-0.001154
8.220000	-0.001128
8.240000	-0.001465
8.260000	-0.001766
8.280000	-0.001777
8.300000	-0.002107
8.320000	-0.002186
8.340000	-0.001494
8.360000	-0.000524
8.380000	-0.000166
8.400000	-0.000401
8.420000	-0.000237
8.440000	0.000324
8.460000	0.000705
8.480000	0.000464
8.500000	-0.000306
8.520000	-0.000698
8.540000	-0.000211
8.560000	0.000510
8.580000	0.001017
8.600000	0.001492
8.620000	0.001724
8.640000	0.002083
8.660000	0.001445
8.680000	0.000036
8.700000	-0.000234
8.720000	-0.000189
8.740000	0.000155
8.760000	0.000622
8.780000	0.000485
8.800000	0.000657
8.820000	0.000877
8.840000	0.001190
8.860000	0.001883
8.880000	0.001203
8.900000	0.000245
8.920000	0.000147
8.940000	0.000224
8.960000	0.000172
8.980000	-0.000057
9.000000	0.000293
9.020000	-0.000177
9.040000	0.000427
9.060000	0.002244
9.080000	0.001576
9.100000	-0.000478
9.120000	-0.001574
9.140000	0.000238
9.160000	0.002024
9.180000	0.001006
9.200000	-0.000087
9.220000	-0.000901
9.240000	-0.001424
9.260000	-0.000198
9.280000	0.001114
9.300000	0.001168
9.320000	0.000904
9.340000	0.000241
9.360000	0.000251
9.380000	0.001616
9.400000	0.002146
9.420000	0.001077
9.440000	0.000738
9.460000	0.001291
9.480000	0.001881
9.500000	0.001926
9.520000	0.002093
9.540000	0.002949
9.560000	0.002290
9.580000	0.002985
9.600000	0.004107
9.620000	0.003610
9.640000	0.001175
9.660000	0.002074
9.680000	0.003202
9.700000	0.004450
9.720000	0.006750
9.740000	0.004573
9.760000	0.005473
9.780000	0.002267
9.800000	0.008289
9.820000	0.004598
9.840000	0.005362
9.860000	0.003721
9.880000	0.003774
9.900000	0.008889
9.920000	0.002614
9.940000	0.012294
9.960000	-0.002776
9.980000	0.013903
10.000000	0.004382
10.020000	0.059325
10.040000	0.170282
10.060000	0.521473
10.080000	1.390964
10.100000	3.011558
10.120000	5.618391
10.140000	9.093428
10.160000	13.566478
10.180000	17.084079
10.200000	16.838593
10.220000	10.687122
10.240000	-0.593982
10.260000	-12.358344
10.280000	-20.766206
10.300000	-23.165182
10.320000	-18.575851
10.340000	-7.779685
10.360000	4.051613
10.380000	10.371933
10.400000	9.918050
10.420000	3.333500
10.440000	-6.806534
10.460000	-15.573736
10.480000	-19.069450
10.500000	-16.223516
10.520000	-9.795892
10.540000	-3.162442
10.560000	0.880582
10.580000	0.671777
10.600000	-2.308301
10.620000	-5.170154
10.640000	-3.756311
10.660000	2.440361
10.680000	8.558681
10.700000	10.512183
10.720000	7.648414
10.740000	2.936877
10.760000	-0.048166
10.780000	0.341128
10.800000	3.112721
10.820000	5.696560
10.840000	7.933913
10.860000	10.006459
10.880000	8.041081
10.900000	2.129895
10.920000	-2.412598
10.940000	-3.806990
10.960000	-2.784387
10.980000	0.026644
11.000000	4.535176
11.020000	7.509200
11.040000	5.090461
11.060000	1.069098
11.080000	-0.529571
11.100000	-0.997454
11.120000	-1.957967
11.140000	-2.290053
11.160000	-1.119672
11.180000	-1.148986
11.200000	-2.925168
11.220000	-4.777973
11.240000	-5.774737
11.260000	-5.061372
11.280000	-2.957607
11.300000	0.199206
11.320000	3.237500
11.340000	3.651288
11.360000	1.294745
11.380000	-1.519695
11.400000	-3.414754
11.420000	-4.519702
11.440000	-4.396856
11.460000	-2.014938
11.480000	1.451329
11.500000	4.227879
11.520000	5.514963
11.540000	5.608565
11.560000	4.255223
11.580000	0.925907
11.600000	-1.537883
11.620000	-0.726016
11.640000	2.145166
11.660000	4.182003
11.680000	4.510660
11.700000	3.395414
11.720000	1.618628
11.740000	0.249938
11.760000	-1.344124
11.780000	-2.804987
11.800000	-2.703755
11.820000	-0.956216
11.840000	-0.256672
11.860000	-1.677664
11.880000	-3.406637
11.900000	-4.800143
11.920000	-5.232013
11.940000	-4.056700
11.960000	-1.742479
11.980000	0.335688
12.000000	1.508604
12.020000	2.450163
12.040000	2.662630
12.060000	1.663725
12.080000	0.186275
12.100000	-0.931655
12.120000	-0.070861
12.140000	1.715509
12.160000	2.167622
12.180000	2.621068
12.200000	3.158126
12.220000	1.712070
12.240000	-2.075534
12.260000	-5.512555
12.280000	-5.762831
12.300000	-4.377860
12.320000	-2.537328
12.340000	-0.716553
12.360000	-0.445283
12.380000	-0.186403
12.400000	1.417650
12.420000	3.577293
12.440000	4.281063
12.460000	2.176820
12.480000	-0.574003
12.500000	-1.202579
12.520000	-0.059193
12.540000	1.459250
12.560000	2.248717
12.580000	1.467566
12.600000	0.800118
12.620000	0.365091
12.640000	-0.636528
12.660000	-2.211091
12.680000	-4.039920
12.700000	-3.147277
12.720000	0.565650
12.740000	3.434904
12.760000	3.487837
12.780000	1.909212
12.800000	-0.017221
12.820000	-0.586339
12.840000	0.040371
12.860000	-1.431420
12.880000	-3.805132
12.900000	-4.590553
12.920000	-3.286361
12.940000	-0.491943
12.960000	1.805917
12.980000	3.003788
13.000000	3.287516
13.020000	2.874635
13.040000	2.538060
13.060000	2.639157
13.080000	2.680013
13.100000	2.308749
13.120000	0.643405
13.140000	-1.198132
13.160000	-1.030839
13.180000	-0.732144
13.200000	-2.008519
13.220000	-3.396599
13.240000	-3.295649
13.260000	-1.350806
13.280000	1.029509
13.300000	1.883089
13.320000	1.462584
13.340000	1.119987
13.360000	0.341087
13.380000	-0.915722
13.400000	-1.787029
13.420000	-2.477657
13.440000	-2.371906
13.460000	-1.848522
13.480000	-1.072119
13.500000	-0.200346
13.520000	-0.367973
13.540000	-0.658566
13.560000	-0.365800
13.580000	0.668183
13.600000	1.364915
13.620000	1.443780
13.640000	1.805611
13.660000	2.900717
13.680000	3.319772
13.700000	1.694096
13.720000	0.234738
13.740000	-0.697265
13.760000	-1.260330
13.780000	-1.174976
13.800000	-0.107567
13.820000	1.357033
13.840000	1.487194
13.860000	0.380764
13.880000	-0.736314
13.900000	-0.048427
13.920000	0.945015
13.940000	0.634326
13.960000	-0.822336
13.980000	-2.426040
14.000000	-1.915116
14.020000	-0.068021
14.040000	1.139416
14.060000	1.263554
14.080000	0.401620
14.100000	-0.773323
14.120000	-0.843470
14.140000	-0.356655
14.160000	-0.294316
14.180000	-0.280962
14.200000	-0.703129
14.220000	-0.383993
14.240000	0.182180
14.260000	-0.326007
14.280000	-0.610169
14.300000	-1.114393
14.320000	-1.278680
14.340000	-1.171277
14.360000	-1.240788
14.380000	-0.373493
14.400000	-0.156575
14.420000	-0.950161
14.440000	-1.100645
14.460000	0.353009
14.480000	2.119177
14.500000	2.413473
14.520000	1.676089
14.540000	1.056901
14.560000	1.049674
14.580000	0.983956
14.600000	0.602891
14.620000	-0.197054
14.640000	-0.856801
14.660000	-0.657124
14.680000	-0.417381
14.700000	-0.432958
14.720000	-0.075211
14.740000	0.975761
14.760000	1.268681
14.780000	0.010927
14.800000	-0.379154
14.820000	0.411118
14.840000	0.567217
14.860000	-0.037073
14.880000	-1.075376
14.900000	-1.472618
14.920000	-0.483283
14.940000	0.273544
14.960000	0.179873
14.980000	0.424816
15.000000	0.842989
15.020000	1.132299
15.040000	1.318944
15.060000	0.731551
15.080000	-0.566048
15.100000	-1.382271
15.120000	-1.348132
15.140000	-0.653681
15.160000	0.042895
15.180000	0.040087
15.200000	-0.610181
15.220000	-1.657877
15.240000	-1.417201
15.260000	-0.386465
15.280000	0.039593
15.300000	0.010535
15.320000	-0.303307
15.340000	-0.011074
15.360000	-0.210805
15.380000	-1.311593
15.400000	-1.458716
15.420000	-0.106449
15.440000	1.035076
15.460000	1.491801
15.480000	2.701159
15.500000	3.479118
15.520000	2.589443
15.540000	1.134314
15.560000	0.259768
15.580000	-0.530429
15.600000	-1.088816
15.620000	-0.521414
15.640000	0.437363
15.660000	0.572119
15.680000	-0.680868
15.700000	-2.069541
15.720000	-2.532447
15.740000	-1.683484
15.760000	-0.721470
15.780000	-0.572881
15.800000	-0.609282
15.820000	-0.621133
15.840000	-0.076184
15.860000	-0.180268
15.880000	-0.424885
15.900000	-0.472950
15.920000	-0.530491
15.940000	0.546718
15.960000	1.502085
15.980000	2.276479
16.000000	2.473012
16.020000	1.696795
16.040000	0.416723
16.060000	-1.032952
16.080000	-0.629258
16.100000	0.935597
16.120000	2.610448
16.140000	4.155093
16.160000	3.629483
16.180000	2.289052
16.200000	1.324303
16.220000	-0.134902
16.240000	-1.329896
16.260000	-2.243720
16.280000	-3.210061
16.300000	-3.444379
16.320000	-2.563744
16.340000	-1.810822
16.360000	-1.497044
16.380000	-1.126188
16.400000	-0.952415
16.420000	-0.858072
16.440000	-0.825293
16.460000	-0.546903
16.480000	-0.245242
16.500000	-0.173052
16.520000	-0.600792
16.540000	-1.452905
16.560000	-2.655886
16.580000	-2.945453
16.600000	-1.329727
16.620000	0.202083
16.640000	1.760018
16.660000	2.893392
16.680000	3.184910
16.700000	3.114351
16.720000	2.199712
16.740000	1.200465
16.760000	0.683125
16.780000	0.406690
16.800000	-0.418522
16.820000	-0.364202
16.840000	0.479433
16.860000	0.574432
16.880000	0.650640
16.900000	0.807296
16.920000	1.131592
16.940000	1.254344
16.960000	1.047905
16.980000	0.182832
17.000000	-1.270119
17.020000	-1.557642
17.040000	-0.631948
17.060000	0.553581
17.080000	0.895616
17.100000	0.700317
17.120000	0.128620
17.140000	-0.882917
17.160000	-1.186126
17.180000	-2.008982
17.200000	-2.168052
17.220000	-0.980354
17.240000	0.014059
17.260000	0.628125
17.280000	0.150446
17.300000	0.312320
17.320000	0.822943
17.340000	0.136823
17.360000	-0.816588
17.380000	-0.897178
17.400000	0.086416
17.420000	0.747150
17.440000	0.844945
17.460000	0.591615
17.480000	0.473286
17.500000	0.357184
17.520000	-0.408295
17.540000	-0.850626
17.560000	0.119762
17.580000	1.187198
17.600000	0.640162
17.620000	0.378524
17.640000	1.079228
17.660000	1.146788
17.680000	0.547960
17.700000	-0.229401
17.720000	-0.641437
17.740000	-0.509262
17.760000	-0.299158
17.780000	-0.062946
17.800000	-0.759161
17.820000	-1.755869
17.840000	-0.785919
17.860000	0.186370
17.880000	0.998885
17.900000	2.031872
17.920000	1.470021
17.940000	0.126235
17.960000	-1.545756
17.980000	-1.944026
18.000000	-1.221638
18.020000	-0.665341
18.040000	-0.375989
18.060000	-0.416898
18.080000	0.407737
18.100000	0.470906
18.120000	-0.142330
18.140000	-0.428565
18.160000	-0.896558
18.180000	-0.529024
18.200000	0.569674
18.220000	1.162452
18.240000	0.331892
18.260000	-0.111935
18.280000	0.729265
18.300000	1.215252
18.320000	0.690548
18.340000	-0.551992
18.360000	-1.192753
18.380000	-0.577813
18.400000	-0.100300
18.420000	-0.331489
18.440000	-0.026423
18.460000	0.097973
18.480000	-0.246943
18.500000	0.241697
18.520000	0.848572
18.540000	0.218084
18.560000	-1.482199
18.580000	-2.915319
18.600000	-2.516734
18.620000	-0.724233
18.640000	0.599017
18.660000	1.271429
18.680000	0.907052
18.700000	0.117105
18.720000	-0.388662
18.740000	-0.447592
18.760000	0.655581
18.780000	1.393270
18.800000	1.053667
18.820000	0.381329
18.840000	0.388994
18.860000	0.390605
18.880000	-0.791234
18.900000	-1.410897
18.920000	-0.510822
18.940000	1.208298
18.960000	2.587195
18.980000	3.113044
19.000000	2.948808
19.020000	1.735051
19.040000	-0.076356
19.060000	-1.324884
19.080000	-1.576621
19.100000	-0.950451
19.120000	0.000281
19.140000	0.541755
19.160000	0.532419
19.180000	0.091389
19.200000	-0.372219
19.220000	-1.009101
19.240000	-1.535011
19.260000	-0.764552
19.280000	-0.239103
19.300000	-0.481022
19.320000	-0.384437
19.340000	-0.852130
19.360000	-0.956803
19.380000	-0.574752
19.400000	0.093934
19.420000	1.319971
19.440000	1.024654
19.460000	0.241472
19.480000	0.117068
19.500000	0.062541
19.520000	0.021593
19.540000	-0.180701
19.560000	-0.213599
19.580000	-0.653286
19.600000	-0.773633
19.620000	-0.558922
19.640000	-0.948263
19.660000	-0.931625
19.680000	-0.109856
19.700000	0.846919
19.720000	0.876810
19.740000	0.832354
19.760000	1.428085
19.780000	1.376239
19.800000	0.175106
19.820000	-1.601406
19.840000	-2.125008
19.860000	-1.609251
19.880000	-1.089229
19.900000	0.006116
19.920000	1.155249
19.940000	1.583983
19.960000	0.976808
19.980000	-0.500635
20.000000	-1.982099
20.020000	-2.303431
20.040000	-1.585765
