Tiempo(s)	Amplitud(mm)
# npts=16247
# fs=50.0000 Hz
# duracion=324.9200 s

0.000000	0.000000
0.020000	0.000000
0.040000	0.000000
0.060000	0.000001
0.080000	0.000001
0.100000	0.000002
0.120000	0.000002
0.140000	0.000003
0.160000	0.000004
0.180000	0.000006
0.200000	0.000007
0.220000	0.000009
0.240000	0.000011
0.260000	0.000013
0.280000	0.000015
0.300000	0.000018
0.320000	0.000020
0.340000	0.000023
0.360000	0.000026
0.380000	0.000029
0.400000	0.000032
0.420000	0.000035
0.440000	0.000038
0.460000	0.000041
0.480000	0.000044
0.500000	0.000048
0.520000	0.000051
0.540000	0.000054
0.560000	0.000058
0.580000	0.000061
0.600000	0.000064
0.620000	0.000068
0.640000	0.000071
0.660000	0.000075
0.680000	0.000078
0.700000	0.000082
0.720000	0.000085
0.740000	0.000089
0.760000	0.000092
0.780000	0.000096
0.800000	0.000099
0.820000	0.000103
0.840000	0.000106
0.860000	0.000110
0.880000	0.000113
0.900000	0.000117
0.920000	0.000121
0.940000	0.000124
0.960000	0.000128
0.980000	0.000131
1.000000	0.000135
1.020000	0.000138
1.040000	0.000142
1.060000	0.000145
1.080000	0.000149
1.100000	0.000153
1.120000	0.000156
1.140000	0.000160
1.160000	0.000163
1.180000	0.000167
1.200000	0.000170
1.220000	0.000174
1.240000	0.000177
1.260000	0.000181
1.280000	0.000184
1.300000	0.000188
1.320000	0.000191
1.340000	0.000195
1.360000	0.000198
1.380000	0.000201
1.400000	0.000205
1.420000	0.000208
1.440000	0.000211
1.460000	0.000215
1.480000	0.000218
1.500000	0.000221
1.520000	0.000224
1.540000	0.000227
1.560000	0.000230
1.580000	0.000233
1.600000	0.000236
1.620000	0.000239
1.640000	0.000242
1.660000	0.000245
1.680000	0.000248
1.700000	0.000251
1.720000	0.000254
1.740000	0.000256
1.760000	0.000259
1.780000	0.000262
1.800000	0.000264
1.820000	0.000267
1.840000	0.000269
1.860000	0.000272
1.880000	0.000274
1.900000	0.000277
1.920000	0.000280
1.940000	0.000282
1.960000	0.000285
1.980000	0.000288
2.000000	0.000291
2.020000	0.000294
2.040000	0.000297
2.060000	0.000300
2.080000	0.000304
2.100000	0.000307
2.120000	0.000311
2.140000	0.000315
2.160000	0.000319
2.180000	0.000323
2.200000	0.000328
2.220000	0.000334
2.240000	0.000339
2.260000	0.000344
2.280000	0.000350
2.300000	0.000355
2.320000	0.000361
2.340000	0.000367
2.360000	0.000372
2.380000	0.000378
2.400000	0.000385
2.420000	0.000391
2.440000	0.000397
2.460000	0.000404
2.480000	0.000412
2.500000	0.000420
2.520000	0.000429
2.540000	0.000438
2.560000	0.000445
2.580000	0.000453
2.600000	0.000461
2.620000	0.000470
2.640000	0.000479
2.660000	0.000488
2.680000	0.000496
2.700000	0.000503
2.720000	0.000510
2.740000	0.000518
2.760000	0.000525
2.780000	0.000536
2.800000	0.000548
2.820000	0.000559
2.840000	0.000569
2.860000	0.000576
2.880000	0.000581
2.900000	0.000586
2.920000	0.000592
2.940000	0.000600
2.960000	0.000608
2.980000	0.000617
3.000000	0.000626
3.020000	0.000634
3.040000	0.000639
3.060000	0.000645
3.080000	0.000651
3.100000	0.000658
3.120000	0.000667
3.140000	0.000674
3.160000	0.000679
3.180000	0.000686
3.200000	0.000697
3.220000	0.000709
3.240000	0.000718
3.260000	0.000727
3.280000	0.000735
3.300000	0.000742
3.320000	0.000749
3.340000	0.000757
3.360000	0.000765
3.380000	0.000775
3.400000	0.000785
3.420000	0.000790
3.440000	0.000789
3.460000	0.000787
3.480000	0.000784
3.500000	0.000782
3.520000	0.000786
3.540000	0.000793
3.560000	0.000804
3.580000	0.000817
3.600000	0.000831
3.620000	0.000843
3.640000	0.000855
3.660000	0.000865
3.680000	0.000875
3.700000	0.000888
3.720000	0.000906
3.740000	0.000927
3.760000	0.000944
3.780000	0.000954
3.800000	0.000961
3.820000	0.000966
3.840000	0.000973
3.860000	0.000976
3.880000	0.000972
3.900000	0.000965
3.920000	0.000953
3.940000	0.000923
3.960000	0.000879
3.980000	0.000831
4.000000	0.000772
4.020000	0.000707
4.040000	0.000648
4.060000	0.000592
4.080000	0.000530
4.100000	0.000459
4.120000	0.000400
4.140000	0.000355
4.160000	0.000311
4.180000	0.000266
4.200000	0.000207
4.220000	0.000146
4.240000	0.000095
4.260000	0.000062
4.280000	0.000051
4.300000	0.000038
4.320000	0.000025
4.340000	0.000014
4.360000	-0.000017
4.380000	-0.000062
4.400000	-0.000105
4.420000	-0.000144
4.440000	-0.000177
4.460000	-0.000205
4.480000	-0.000246
4.500000	-0.000291
4.520000	-0.000332
4.540000	-0.000378
4.560000	-0.000422
4.580000	-0.000459
4.600000	-0.000498
4.620000	-0.000530
4.640000	-0.000543
4.660000	-0.000545
4.680000	-0.000547
4.700000	-0.000564
4.720000	-0.000581
4.740000	-0.000608
4.760000	-0.000646
4.780000	-0.000680
4.800000	-0.000725
4.820000	-0.000770
4.840000	-0.000791
4.860000	-0.000785
4.880000	-0.000776
4.900000	-0.000795
4.920000	-0.000846
4.940000	-0.000908
4.960000	-0.000980
4.980000	-0.001051
5.000000	-0.001104
5.020000	-0.001153
5.040000	-0.001178
5.060000	-0.001203
5.080000	-0.001262
5.100000	-0.001309
5.120000	-0.001354
5.140000	-0.001433
5.160000	-0.001518
5.180000	-0.001600
5.200000	-0.001664
5.220000	-0.001727
5.240000	-0.001798
5.260000	-0.001868
5.280000	-0.001963
5.300000	-0.002053
5.320000	-0.002116
5.340000	-0.002171
5.360000	-0.002216
5.380000	-0.002204
5.400000	-0.002167
5.420000	-0.002152
5.440000	-0.002149
5.460000	-0.002137
5.480000	-0.002075
5.500000	-0.002010
5.520000	-0.001920
5.540000	-0.001836
5.560000	-0.001822
5.580000	-0.001775
5.600000	-0.001680
5.620000	-0.001587
5.640000	-0.001542
5.660000	-0.001517
5.680000	-0.001542
5.700000	-0.001583
5.720000	-0.001549
5.740000	-0.001520
5.760000	-0.001493
5.780000	-0.001461
5.800000	-0.001490
5.820000	-0.001627
5.840000	-0.001769
5.860000	-0.001872
5.880000	-0.001983
5.900000	-0.002007
5.920000	-0.001969
5.940000	-0.001891
5.960000	-0.001837
5.980000	-0.001810
6.000000	-0.001771
6.020000	-0.001721
6.040000	-0.001582
6.060000	-0.001397
6.080000	-0.001194
6.100000	-0.000972
6.120000	-0.000783
6.140000	-0.000674
6.160000	-0.000589
6.180000	-0.000446
6.200000	-0.000344
6.220000	-0.000233
6.240000	0.000029
6.260000	0.000380
6.280000	0.000681
6.300000	0.000948
6.320000	0.001245
6.340000	0.001482
6.360000	0.001700
6.380000	0.001988
6.400000	0.002246
6.420000	0.002421
6.440000	0.002687
6.460000	0.003074
6.480000	0.003481
6.500000	0.003924
6.520000	0.004408
6.540000	0.004855
6.560000	0.005275
6.580000	0.005781
6.600000	0.006282
6.620000	0.006718
6.640000	0.007166
6.660000	0.007638
6.680000	0.008084
6.700000	0.008534
6.720000	0.009008
6.740000	0.009546
6.760000	0.010259
6.780000	0.011097
6.800000	0.011933
6.820000	0.012673
6.840000	0.013344
6.860000	0.013949
6.880000	0.014459
6.900000	0.015034
6.920000	0.015651
6.940000	0.016174
6.960000	0.016644
6.980000	0.017170
7.000000	0.017692
7.020000	0.018124
7.040000	0.018531
7.060000	0.018835
7.080000	0.018957
7.100000	0.018966
7.120000	0.018931
7.140000	0.018847
7.160000	0.018686
7.180000	0.018517
7.200000	0.018317
7.220000	0.018044
7.240000	0.017745
7.260000	0.017384
7.280000	0.017069
7.300000	0.016855
7.320000	0.016584
7.340000	0.016278
7.360000	0.015982
7.380000	0.015693
7.400000	0.015284
7.420000	0.014786
7.440000	0.014231
7.460000	0.013476
7.480000	0.012528
7.500000	0.011569
7.520000	0.010721
7.540000	0.009895
7.560000	0.009305
7.580000	0.008735
7.600000	0.007980
7.620000	0.007296
7.640000	0.006595
7.660000	0.005817
7.680000	0.005003
7.700000	0.004185
7.720000	0.003239
7.740000	0.002295
7.760000	0.001594
7.780000	0.001088
7.800000	0.000568
7.820000	-0.000079
7.840000	-0.000777
7.860000	-0.001507
7.880000	-0.002105
7.900000	-0.002527
7.920000	-0.002924
7.940000	-0.003291
7.960000	-0.003663
7.980000	-0.003956
8.000000	-0.004289
8.020000	-0.004676
8.040000	-0.005082
8.060000	-0.005666
8.080000	-0.006216
8.100000	-0.006627
8.120000	-0.006986
8.140000	-0.007333
8.160000	-0.007478
8.180000	-0.007530
8.200000	-0.007698
8.220000	-0.007772
8.240000	-0.007764
8.260000	-0.007668
8.280000	-0.007407
8.300000	-0.007120
8.320000	-0.006960
8.340000	-0.006886
8.360000	-0.006656
8.380000	-0.006365
8.400000	-0.006145
8.420000	-0.005851
8.440000	-0.005627
8.460000	-0.005502
8.480000	-0.005347
8.500000	-0.005236
8.520000	-0.005201
8.540000	-0.005172
8.560000	-0.005054
8.580000	-0.005030
8.600000	-0.005091
8.620000	-0.004937
8.640000	-0.004653
8.660000	-0.004435
8.680000	-0.004335
8.700000	-0.004323
8.720000	-0.004453
8.740000	-0.004723
8.760000	-0.004890
8.780000	-0.005030
8.800000	-0.005275
8.820000	-0.005518
8.840000	-0.005846
8.860000	-0.006297
8.880000	-0.006710
8.900000	-0.007126
8.920000	-0.007583
8.940000	-0.007937
8.960000	-0.008206
8.980000	-0.008451
9.000000	-0.008780
9.020000	-0.009220
9.040000	-0.009774
9.060000	-0.010630
9.080000	-0.011717
9.100000	-0.012851
9.120000	-0.014186
9.140000	-0.015636
9.160000	-0.016853
9.180000	-0.017991
9.200000	-0.019093
9.220000	-0.020179
9.240000	-0.021315
9.260000	-0.022374
9.280000	-0.023343
9.300000	-0.024301
9.320000	-0.025154
9.340000	-0.025725
9.360000	-0.026005
9.380000	-0.025967
9.400000	-0.025762
9.420000	-0.025637
9.440000	-0.025720
9.460000	-0.025807
9.480000	-0.025653
9.500000	-0.025238
9.520000	-0.024682
9.540000	-0.023987
9.560000	-0.023115
9.580000	-0.022218
9.600000	-0.021449
9.620000	-0.020780
9.640000	-0.020189
9.660000	-0.019750
9.680000	-0.019063
9.700000	-0.017994
9.720000	-0.016708
9.740000	-0.015464
9.760000	-0.014482
9.780000	-0.013557
9.800000	-0.012674
9.820000	-0.011601
9.840000	-0.010692
9.860000	-0.009661
9.880000	-0.008009
9.900000	-0.005252
9.920000	-0.001432
9.940000	0.003465
9.960000	0.009778
9.980000	0.017611
10.000000	0.029217
10.020000	0.045051
10.040000	0.067775
10.060000	0.098602
10.080000	0.135929
10.100000	0.166215
10.120000	0.161573
10.140000	0.105148
10.160000	0.023285
10.180000	-0.024862
10.200000	0.004139
10.220000	0.153770
10.240000	0.397147
10.260000	0.620285
10.280000	0.750304
10.300000	0.728389
10.320000	0.404514
10.340000	-0.301090
10.360000	-1.066663
10.380000	-1.422791
10.400000	-1.290887
10.420000	-0.945764
10.440000	-0.612356
10.460000	-0.233675
10.480000	0.151163
10.500000	0.138765
10.520000	-0.537996
10.540000	-1.646198
10.560000	-2.739907
10.580000	-3.491077
10.600000	-3.449479
10.620000	-2.418705
10.640000	-0.910893
10.660000	0.494471
10.680000	1.448004
10.700000	2.090669
10.720000	2.694372
10.740000	3.044030
10.760000	2.885404
10.780000	2.461972
10.800000	2.414293
10.820000	2.494668
10.840000	1.922082
10.860000	0.834263
10.880000	-0.226278
10.900000	-0.696038
10.920000	-0.322498
10.940000	0.608116
10.960000	2.001044
10.980000	3.583190
11.000000	4.565028
11.020000	4.506266
11.040000	3.515756
11.060000	1.950380
11.080000	0.253228
11.100000	-1.556415
11.120000	-3.896051
11.140000	-6.218575
11.160000	-7.162027
11.180000	-6.635972
11.200000	-5.651670
11.220000	-4.929238
11.240000	-4.113968
11.260000	-2.332410
11.280000	-0.009256
11.300000	1.958980
11.320000	3.389121
11.340000	4.246832
11.360000	4.721511
11.380000	4.751916
11.400000	4.067914
11.420000	2.777803
11.440000	1.056992
11.460000	-1.057746
11.480000	-3.079618
11.500000	-4.061456
11.520000	-3.812499
11.540000	-2.811145
11.560000	-1.697274
11.580000	-0.427041
11.600000	1.695439
11.620000	4.196900
11.640000	5.556537
11.660000	4.679496
11.680000	2.098163
11.700000	-0.728178
11.720000	-3.061987
11.740000	-4.958352
11.760000	-6.309358
11.780000	-6.414157
11.800000	-4.923476
11.820000	-2.132062
11.840000	1.062149
11.860000	3.362605
11.880000	4.138787
11.900000	3.521865
11.920000	1.734261
11.940000	-0.570045
11.960000	-1.896671
11.980000	-1.411498
12.000000	0.301326
12.020000	2.276038
12.040000	3.920272
12.060000	5.339311
12.080000	6.378763
12.100000	5.925671
12.120000	3.670518
12.140000	0.987610
12.160000	-0.814838
12.180000	-1.446389
12.200000	-1.771647
12.220000	-2.715277
12.240000	-3.386615
12.260000	-2.540262
12.280000	-0.421338
12.300000	1.360288
12.320000	1.402705
12.340000	-0.016496
12.360000	-1.427996
12.380000	-1.903114
12.400000	-2.619605
12.420000	-4.280525
12.440000	-5.653118
12.460000	-5.683857
12.480000	-4.391700
12.500000	-2.799425
12.520000	-1.520957
12.540000	-0.407861
12.560000	0.755907
12.580000	1.597635
12.600000	1.567069
12.620000	1.094272
12.640000	1.396025
12.660000	3.126864
12.680000	4.742921
12.700000	4.601553
12.720000	3.328023
12.740000	2.221928
12.760000	1.304667
12.780000	0.306945
12.800000	-0.177266
12.820000	0.068727
12.840000	0.523533
12.860000	0.769937
12.880000	0.953666
12.900000	1.197154
12.920000	1.700771
12.940000	2.086910
12.960000	1.134455
12.980000	-1.061631
13.000000	-3.420319
13.020000	-4.822798
13.040000	-4.753522
13.060000	-3.698370
13.080000	-2.240491
13.100000	-1.180151
13.120000	-0.792027
13.140000	-0.466749
13.160000	-0.183921
13.180000	-0.110043
13.200000	0.294980
13.220000	1.087506
13.240000	1.462858
13.260000	1.152789
13.280000	0.805259
13.300000	0.613671
13.320000	0.366653
13.340000	0.203377
13.360000	-0.203717
13.380000	-0.658878
13.400000	-0.306300
13.420000	0.782491
13.440000	2.351355
13.460000	3.566079
13.480000	2.993018
13.500000	0.846628
13.520000	-1.470052
13.540000	-3.034416
13.560000	-3.799167
13.580000	-3.961905
13.600000	-3.342167
13.620000	-2.505424
13.640000	-1.969542
13.660000	-1.234716
13.680000	-0.076982
13.700000	1.646968
13.720000	3.782478
13.740000	5.487205
13.760000	5.919188
13.780000	4.849857
13.800000	2.888881
13.820000	0.729037
13.840000	-1.031413
13.860000	-2.185628
13.880000	-3.200363
13.900000	-4.102818
13.920000	-4.217924
13.940000	-2.966573
13.960000	-0.725595
13.980000	1.465586
14.000000	3.073242
14.020000	3.507503
14.040000	2.390898
14.060000	0.807262
14.080000	0.473397
14.100000	1.590927
14.120000	2.498418
14.140000	2.144587
14.160000	1.215388
14.180000	0.649356
14.200000	0.412856
14.220000	0.160208
14.240000	-0.502573
14.260000	-1.808828
14.280000	-3.189992
14.300000	-4.165170
14.320000	-4.682189
14.340000	-4.807355
14.360000	-4.562603
14.380000	-4.217327
14.400000	-3.956942
14.420000	-3.365874
14.440000	-2.058024
14.460000	0.033278
14.480000	2.299014
14.500000	4.237962
14.520000	5.445859
14.540000	5.160862
14.560000	3.852200
14.580000	2.797053
14.600000	2.456987
14.620000	2.589420
14.640000	2.950535
14.660000	3.052271
14.680000	2.142574
14.700000	0.207719
14.720000	-1.459330
14.740000	-1.957416
14.760000	-2.161052
14.780000	-2.569302
14.800000	-2.841602
14.820000	-2.964509
14.840000	-2.684609
14.860000	-1.472379
14.880000	0.707920
14.900000	3.018823
14.920000	4.159956
14.940000	3.710568
14.960000	2.786604
14.980000	2.197073
15.000000	1.406810
15.020000	-0.172261
15.040000	-2.445288
15.060000	-4.586340
15.080000	-5.908195
15.100000	-6.513656
15.120000	-5.973192
15.140000	-3.502990
15.160000	0.200027
15.180000	3.327956
15.200000	4.582019
15.220000	4.238957
15.240000	3.380680
15.260000	2.542306
15.280000	2.049086
15.300000	1.654434
15.320000	0.626332
15.340000	-1.325852
15.360000	-3.548383
15.380000	-4.534611
15.400000	-3.887295
15.420000	-2.367058
15.440000	-1.051049
15.460000	-0.853624
15.480000	-1.067502
15.500000	-0.533623
15.520000	1.042916
15.540000	3.336048
15.560000	5.204870
15.580000	5.590260
15.600000	4.862234
15.620000	4.278605
15.640000	4.120594
15.660000	3.693602
15.680000	2.892356
15.700000	2.009386
15.720000	0.955218
15.740000	-0.430147
15.760000	-2.148771
15.780000	-3.565139
15.800000	-4.055036
15.820000	-4.242831
15.840000	-4.836506
15.860000	-5.536643
15.880000	-5.665527
15.900000	-5.028675
15.920000	-3.568805
15.940000	-1.464752
15.960000	0.674896
15.980000	2.405780
16.000000	3.382393
16.020000	3.877301
16.040000	4.282131
16.060000	4.485984
16.080000	4.035106
16.100000	3.124948
16.120000	2.324925
16.140000	0.873776
16.160000	-1.362883
16.180000	-3.050836
16.200000	-3.303290
16.220000	-2.799656
16.240000	-2.498589
16.260000	-2.403288
16.280000	-2.334810
16.300000	-2.079544
16.320000	-2.126704
16.340000	-2.815306
16.360000	-3.138545
16.380000	-2.187671
16.400000	0.067040
16.420000	3.053826
16.440000	5.686240
16.460000	6.849616
16.480000	6.267739
16.500000	4.696331
16.520000	2.916407
16.540000	0.739345
16.560000	-2.026573
16.580000	-4.317214
16.600000	-4.815990
16.620000	-3.722571
16.640000	-2.317603
16.660000	-1.455466
16.680000	-1.423648
16.700000	-1.916031
16.720000	-1.775715
16.740000	-0.553096
16.760000	1.053284
16.780000	2.639801
16.800000	3.971470
16.820000	4.981952
16.840000	5.340173
16.860000	4.581386
16.880000	3.026694
16.900000	1.342822
16.920000	0.019858
16.940000	-1.266797
16.960000	-2.939847
16.980000	-4.629787
17.000000	-5.191152
17.020000	-4.220510
17.040000	-2.994406
17.060000	-2.101541
17.080000	-1.228806
17.100000	-0.150785
17.120000	1.527637
17.140000	3.695996
17.160000	5.365299
17.180000	5.494789
17.200000	3.835680
17.220000	0.885228
17.240000	-2.412771
17.260000	-5.265047
17.280000	-7.008592
17.300000	-7.042279
17.320000	-5.665318
17.340000	-3.815509
17.360000	-2.106755
17.380000	-0.332336
17.400000	1.573201
17.420000	3.238312
17.440000	4.536630
17.460000	4.978465
17.480000	4.203428
17.500000	2.710763
17.520000	1.634985
17.540000	1.394699
17.560000	1.416181
17.580000	1.592783
17.600000	1.909123
17.620000	2.244835
17.640000	2.038504
17.660000	0.913756
17.680000	-0.512307
17.700000	-1.833734
17.720000	-2.347062
17.740000	-1.784437
17.760000	-1.386038
17.780000	-1.836264
17.800000	-2.512675
17.820000	-2.876311
17.840000	-2.792334
17.860000	-2.196143
17.880000	-1.219250
17.900000	0.177019
17.920000	1.988579
17.940000	3.624922
17.960000	4.489969
17.980000	4.707996
18.000000	4.654931
18.020000	4.042489
18.040000	2.312185
18.060000	-0.465828
18.080000	-3.281252
18.100000	-5.066538
18.120000	-5.359318
18.140000	-4.268618
18.160000	-2.727618
18.180000	-1.611185
18.200000	-1.035852
18.220000	-0.650194
18.240000	-0.494822
18.260000	-0.971592
18.280000	-1.691749
18.300000	-1.891328
18.320000	-1.177960
18.340000	0.308132
18.360000	2.109304
18.380000	3.508002
18.400000	3.873847
18.420000	3.410265
18.440000	2.553865
18.460000	1.519482
18.480000	0.467855
18.500000	-0.840947
18.520000	-2.527993
18.540000	-3.673582
18.560000	-3.572885
18.580000	-2.503011
18.600000	-0.889784
18.620000	0.923292
18.640000	2.430640
18.660000	3.006757
18.680000	2.579131
18.700000	1.525035
18.720000	0.410058
18.740000	-0.359138
18.760000	-0.678919
18.780000	-0.647381
18.800000	-0.609916
18.820000	-0.305953
18.840000	0.619502
18.860000	1.541691
18.880000	1.569241
18.900000	0.791647
18.920000	-0.318971
18.940000	-1.645968
18.960000	-2.786502
18.980000	-3.329324
19.000000	-3.306209
19.020000	-2.663480
19.040000	-1.053849
19.060000	0.839496
19.080000	2.111738
19.100000	2.747023
19.120000	2.391579
19.140000	1.147696
19.160000	-0.035056
19.180000	-0.645222
19.200000	-0.782836
19.220000	-0.634513
19.240000	-0.426242
19.260000	0.085984
19.280000	1.259180
19.300000	2.545206
19.320000	3.233866
19.340000	2.822558
19.360000	1.612244
19.380000	0.635214
19.400000	0.419715
19.420000	0.788345
19.440000	1.047103
19.460000	0.913081
19.480000	0.774207
19.500000	0.502113
19.520000	-0.175867
19.540000	-0.770676
19.560000	-1.164608
19.580000	-1.626759
19.600000	-2.085343
19.620000	-2.671364
19.640000	-3.277263
19.660000	-3.174209
19.680000	-2.044546
19.700000	-0.597730
19.720000	0.363386
19.740000	0.752369
19.760000	0.622988
19.780000	0.061794
19.800000	-0.631564
19.820000	-1.394738
19.840000	-1.916764
19.860000	-1.763565
19.880000	-1.258846
19.900000	-0.864308
19.920000	-0.388414
19.940000	0.582618
