Tiempo(s)	Amplitud(mm)
# npts=12001
# fs=50.0000 Hz
# duracion=240.0000 s

0.000000	-0.000001
0.020000	-0.000001
0.040000	-0.000001
0.060000	-0.000001
0.080000	-0.000002
0.100000	-0.000003
0.120000	-0.000005
0.140000	-0.000007
0.160000	-0.000009
0.180000	-0.000012
0.200000	-0.000016
0.220000	-0.000019
0.240000	-0.000024
0.260000	-0.000028
0.280000	-0.000033
0.300000	-0.000038
0.320000	-0.000044
0.340000	-0.000049
0.360000	-0.000055
0.380000	-0.000061
0.400000	-0.000068
0.420000	-0.000074
0.440000	-0.000081
0.460000	-0.000087
0.480000	-0.000094
0.500000	-0.000101
0.520000	-0.000108
0.540000	-0.000115
0.560000	-0.000122
0.580000	-0.000129
0.600000	-0.000137
0.620000	-0.000144
0.640000	-0.000151
0.660000	-0.000158
0.680000	-0.000166
0.700000	-0.000173
0.720000	-0.000180
0.740000	-0.000187
0.760000	-0.000195
0.780000	-0.000202
0.800000	-0.000209
0.820000	-0.000216
0.840000	-0.000224
0.860000	-0.000231
0.880000	-0.000238
0.900000	-0.000246
0.920000	-0.000253
0.940000	-0.000260
0.960000	-0.000268
0.980000	-0.000275
1.000000	-0.000282
1.020000	-0.000289
1.040000	-0.000297
1.060000	-0.000304
1.080000	-0.000311
1.100000	-0.000319
1.120000	-0.000326
1.140000	-0.000333
1.160000	-0.000341
1.180000	-0.000348
1.200000	-0.000355
1.220000	-0.000362
1.240000	-0.000369
1.260000	-0.000377
1.280000	-0.000384
1.300000	-0.000391
1.320000	-0.000398
1.340000	-0.000405
1.360000	-0.000412
1.380000	-0.000418
1.400000	-0.000425
1.420000	-0.000432
1.440000	-0.000439
1.460000	-0.000445
1.480000	-0.000452
1.500000	-0.000459
1.520000	-0.000466
1.540000	-0.000472
1.560000	-0.000478
1.580000	-0.000485
1.600000	-0.000491
1.620000	-0.000498
1.640000	-0.000504
1.660000	-0.000509
1.680000	-0.000515
1.700000	-0.000521
1.720000	-0.000527
1.740000	-0.000532
1.760000	-0.000538
1.780000	-0.000544
1.800000	-0.000549
1.820000	-0.000554
1.840000	-0.000561
1.860000	-0.000566
1.880000	-0.000570
1.900000	-0.000576
1.920000	-0.000581
1.940000	-0.000587
1.960000	-0.000592
1.980000	-0.000598
2.000000	-0.000604
2.020000	-0.000610
2.040000	-0.000616
2.060000	-0.000622
2.080000	-0.000628
2.100000	-0.000634
2.120000	-0.000640
2.140000	-0.000645
2.160000	-0.000651
2.180000	-0.000658
2.200000	-0.000665
2.220000	-0.000670
2.240000	-0.000677
2.260000	-0.000684
2.280000	-0.000691
2.300000	-0.000699
2.320000	-0.000706
2.340000	-0.000714
2.360000	-0.000724
2.380000	-0.000733
2.400000	-0.000738
2.420000	-0.000746
2.440000	-0.000756
2.460000	-0.000767
2.480000	-0.000777
2.500000	-0.000784
2.520000	-0.000795
2.540000	-0.000806
2.560000	-0.000816
2.580000	-0.000826
2.600000	-0.000832
2.620000	-0.000841
2.640000	-0.000855
2.660000	-0.000871
2.680000	-0.000884
2.700000	-0.000892
2.720000	-0.000902
2.740000	-0.000919
2.760000	-0.000938
2.780000	-0.000950
2.800000	-0.000958
2.820000	-0.000970
2.840000	-0.000980
2.860000	-0.000991
2.880000	-0.001011
2.900000	-0.001027
2.920000	-0.001036
2.940000	-0.001051
2.960000	-0.001077
2.980000	-0.001090
3.000000	-0.001091
3.020000	-0.001105
3.040000	-0.001126
3.060000	-0.001155
3.080000	-0.001170
3.100000	-0.001170
3.120000	-0.001175
3.140000	-0.001173
3.160000	-0.001185
3.180000	-0.001206
3.200000	-0.001201
3.220000	-0.001194
3.240000	-0.001187
3.260000	-0.001181
3.280000	-0.001167
3.300000	-0.001125
3.320000	-0.001113
3.340000	-0.001111
3.360000	-0.001096
3.380000	-0.001094
3.400000	-0.001075
3.420000	-0.001043
3.440000	-0.001007
3.460000	-0.000979
3.480000	-0.000964
3.500000	-0.000925
3.520000	-0.000889
3.540000	-0.000866
3.560000	-0.000837
3.580000	-0.000796
3.600000	-0.000755
3.620000	-0.000742
3.640000	-0.000710
3.660000	-0.000670
3.680000	-0.000656
3.700000	-0.000629
3.720000	-0.000579
3.740000	-0.000507
3.760000	-0.000460
3.780000	-0.000459
3.800000	-0.000433
3.820000	-0.000395
3.840000	-0.000362
3.860000	-0.000290
3.880000	-0.000218
3.900000	-0.000163
3.920000	-0.000130
3.940000	-0.000103
3.960000	-0.000095
3.980000	-0.000156
4.000000	-0.000172
4.020000	-0.000141
4.040000	-0.000147
4.060000	-0.000188
4.080000	-0.000258
4.100000	-0.000298
4.120000	-0.000338
4.140000	-0.000406
4.160000	-0.000415
4.180000	-0.000439
4.200000	-0.000525
4.220000	-0.000606
4.240000	-0.000680
4.260000	-0.000728
4.280000	-0.000767
4.300000	-0.000807
4.320000	-0.000850
4.340000	-0.000944
4.360000	-0.001024
4.380000	-0.001023
4.400000	-0.001047
4.420000	-0.001086
4.440000	-0.001069
4.460000	-0.001003
4.480000	-0.000930
4.500000	-0.000912
4.520000	-0.000899
4.540000	-0.000881
4.560000	-0.000854
4.580000	-0.000781
4.600000	-0.000737
4.620000	-0.000763
4.640000	-0.000650
4.660000	-0.000484
4.680000	-0.000505
4.700000	-0.000453
4.720000	-0.000422
4.740000	-0.000475
4.760000	-0.000325
4.780000	-0.000208
4.800000	-0.000251
4.820000	-0.000401
4.840000	-0.000437
4.860000	-0.000227
4.880000	-0.000256
4.900000	-0.000414
4.920000	-0.000341
4.940000	-0.000295
4.960000	-0.000386
4.980000	-0.000517
5.000000	-0.000575
5.020000	-0.000594
5.040000	-0.000679
5.060000	-0.000706
5.080000	-0.000723
5.100000	-0.000858
5.120000	-0.000969
5.140000	-0.000868
5.160000	-0.000790
5.180000	-0.000874
5.200000	-0.000781
5.220000	-0.000551
5.240000	-0.000530
5.260000	-0.000591
5.280000	-0.000558
5.300000	-0.000489
5.320000	-0.000511
5.340000	-0.000416
5.360000	-0.000166
5.380000	-0.000073
5.400000	0.000080
5.420000	0.000302
5.440000	0.000408
5.460000	0.000431
5.480000	0.000586
5.500000	0.001046
5.520000	0.001248
5.540000	0.001280
5.560000	0.001567
5.580000	0.001610
5.600000	0.001403
5.620000	0.001588
5.640000	0.001865
5.660000	0.001810
5.680000	0.001877
5.700000	0.002052
5.720000	0.002019
5.740000	0.001868
5.760000	0.001913
5.780000	0.002061
5.800000	0.001926
5.820000	0.001790
5.840000	0.001866
5.860000	0.001761
5.880000	0.001461
5.900000	0.001506
5.920000	0.001529
5.940000	0.001311
5.960000	0.001332
5.980000	0.001425
6.000000	0.001315
6.020000	0.000990
6.040000	0.000928
6.060000	0.001029
6.080000	0.000831
6.100000	0.000648
6.120000	0.000831
6.140000	0.001037
6.160000	0.000829
6.180000	0.000671
6.200000	0.000805
6.220000	0.000808
6.240000	0.000827
6.260000	0.001138
6.280000	0.001149
6.300000	0.000951
6.320000	0.001024
6.340000	0.001145
6.360000	0.001215
6.380000	0.001226
6.400000	0.001291
6.420000	0.001300
6.440000	0.001188
6.460000	0.001173
6.480000	0.001144
6.500000	0.000933
6.520000	0.000840
6.540000	0.000827
6.560000	0.000326
6.580000	-0.000158
6.600000	-0.000297
6.620000	-0.000599
6.640000	-0.001060
6.660000	-0.001304
6.680000	-0.001544
6.700000	-0.001929
6.720000	-0.002146
6.740000	-0.002311
6.760000	-0.002603
6.780000	-0.002783
6.800000	-0.002794
6.820000	-0.002956
6.840000	-0.003086
6.860000	-0.003010
6.880000	-0.002726
6.900000	-0.002454
6.920000	-0.002556
6.940000	-0.002443
6.960000	-0.001826
6.980000	-0.001400
7.000000	-0.001461
7.020000	-0.001367
7.040000	-0.000970
7.060000	-0.000632
7.080000	-0.000495
7.100000	-0.000399
7.120000	-0.000204
7.140000	-0.000092
7.160000	0.000260
7.180000	0.000541
7.200000	0.000464
7.220000	0.000621
7.240000	0.001224
7.260000	0.001847
7.280000	0.001849
7.300000	0.002031
7.320000	0.002445
7.340000	0.002411
7.360000	0.002380
7.380000	0.002427
7.400000	0.002415
7.420000	0.002218
7.440000	0.002033
7.460000	0.002041
7.480000	0.001880
7.500000	0.001656
7.520000	0.001655
7.540000	0.001418
7.560000	0.001077
7.580000	0.001013
7.600000	0.000831
7.620000	0.000865
7.640000	0.000862
7.660000	0.000322
7.680000	-0.000056
7.700000	-0.000336
7.720000	-0.000478
7.740000	-0.000559
7.760000	-0.000910
7.780000	-0.001062
7.800000	-0.001112
7.820000	-0.001338
7.840000	-0.001678
7.860000	-0.001802
7.880000	-0.001531
7.900000	-0.001247
7.920000	-0.001200
7.940000	-0.001452
7.960000	-0.001588
7.980000	-0.001547
8.000000	-0.001583
8.020000	-0.001456
8.040000	-0.001456
8.060000	-0.001675
8.080000	-0.001905
8.100000	-0.001817
8.120000	-0.001604
8.140000	-0.001588
8.160000	-0.001370
8.180000	-0.001187
8.200000	-0.001273
8.220000	-0.001298
8.240000	-0.000917
8.260000	-0.000696
8.280000	-0.000756
8.300000	-0.000434
8.320000	-0.000149
8.340000	-0.000026
8.360000	-0.000016
8.380000	0.000126
8.400000	0.000246
8.420000	0.000047
8.440000	0.000162
8.460000	0.000137
8.480000	-0.000195
8.500000	-0.000277
8.520000	-0.000181
8.540000	-0.000037
8.560000	0.000052
8.580000	0.000094
8.600000	0.000183
8.620000	0.000405
8.640000	0.000724
8.660000	0.000853
8.680000	0.000637
8.700000	0.000337
8.720000	-0.000067
8.740000	-0.000501
8.760000	-0.000524
8.780000	-0.000577
8.800000	-0.000958
8.820000	-0.001622
8.840000	-0.001925
8.860000	-0.001953
8.880000	-0.003075
8.900000	-0.007016
8.920000	-0.014640
8.940000	-0.026260
8.960000	-0.040608
8.980000	-0.047441
9.000000	-0.046513
9.020000	-0.040614
9.040000	-0.031950
9.060000	-0.031878
9.080000	-0.032620
9.100000	-0.027181
9.120000	-0.025650
9.140000	-0.027014
9.160000	-0.013898
9.180000	-0.008595
9.200000	-0.033054
9.220000	-0.044152
9.240000	-0.011772
9.260000	0.038728
9.280000	0.053954
9.300000	0.029871
9.320000	0.036137
9.340000	0.105621
9.360000	0.128950
9.380000	0.045562
9.400000	-0.034834
9.420000	-0.018953
9.440000	0.119540
9.460000	0.261054
9.480000	0.242678
9.500000	0.125948
9.520000	0.046414
9.540000	-0.012682
9.560000	-0.039629
9.580000	0.009850
9.600000	0.065826
9.620000	0.063135
9.640000	-0.100920
9.660000	-0.286281
9.680000	-0.229365
9.700000	-0.091053
9.720000	-0.048706
9.740000	-0.046394
9.760000	-0.026798
9.780000	0.003133
9.800000	-0.001285
9.820000	-0.016402
9.840000	0.035272
9.860000	0.077883
9.880000	-0.032094
9.900000	-0.138985
9.920000	-0.154157
9.940000	-0.172865
9.960000	-0.109251
9.980000	0.002661
10.000000	0.129639
10.020000	0.231383
10.040000	0.103060
10.060000	-0.095450
10.080000	-0.027553
10.100000	0.154941
10.120000	0.168015
10.140000	0.156830
10.160000	0.192163
10.180000	0.108748
10.200000	-0.144245
10.220000	-0.280408
10.240000	-0.124338
10.260000	-0.002508
10.280000	-0.024443
10.300000	-0.046021
10.320000	-0.078720
10.340000	-0.119192
10.360000	0.023516
10.380000	0.095695
10.400000	0.009056
10.420000	0.043063
10.440000	-0.013944
10.460000	-0.001616
10.480000	0.042189
10.500000	0.039121
10.520000	0.096233
10.540000	-0.094218
10.560000	-0.169046
10.580000	-0.052101
10.600000	-0.003106
10.620000	0.104377
10.640000	0.092095
10.660000	0.041098
10.680000	0.045712
10.700000	0.020502
10.720000	0.028316
10.740000	-0.051317
10.760000	-0.103610
10.780000	-0.031427
10.800000	0.018654
10.820000	0.122702
10.840000	-0.011622
10.860000	-0.308249
10.880000	-0.127146
10.900000	0.142267
10.920000	0.194761
10.940000	0.140610
10.960000	-0.054256
10.980000	-0.108517
11.000000	-0.111461
11.020000	-0.053196
11.040000	0.071731
11.060000	0.163825
11.080000	0.154726
11.100000	-0.015297
11.120000	0.023866
11.140000	-0.027693
11.160000	-0.222280
11.180000	-0.146799
11.200000	0.081456
11.220000	0.227472
11.240000	0.165269
11.260000	0.026241
11.280000	-0.189709
11.300000	-0.276728
11.320000	-0.154389
11.340000	-0.101378
11.360000	-0.020437
11.380000	0.157169
11.400000	0.240990
11.420000	0.188875
11.440000	0.063586
11.460000	0.057735
11.480000	0.118572
11.500000	-0.055941
11.520000	-0.169910
11.540000	-0.046425
11.560000	-0.006390
11.580000	-0.030921
11.600000	0.052180
11.620000	-0.004590
11.640000	-0.112165
11.660000	-0.084254
11.680000	-0.018197
11.700000	0.164058
11.720000	0.154305
11.740000	-0.018954
11.760000	-0.037102
11.780000	-0.037220
11.800000	-0.068466
11.820000	-0.080971
11.840000	-0.089574
11.860000	0.026763
11.880000	0.179978
11.900000	0.113028
11.920000	0.013936
11.940000	0.092300
11.960000	0.110440
11.980000	-0.109860
12.000000	-0.185355
12.020000	-0.038286
12.040000	0.036619
12.060000	0.055889
12.080000	0.020263
12.100000	-0.078489
12.120000	-0.168172
12.140000	-0.128642
12.160000	0.051691
12.180000	0.115448
12.200000	0.025998
12.220000	0.001426
12.240000	0.055376
12.260000	0.160116
12.280000	0.145837
12.300000	-0.020526
12.320000	-0.103524
12.340000	-0.095706
12.360000	-0.042966
12.380000	0.073886
12.400000	0.219174
12.420000	0.158337
12.440000	-0.067486
12.460000	-0.089506
12.480000	0.086953
12.500000	0.116122
12.520000	0.003420
12.540000	-0.009389
12.560000	-0.024624
12.580000	-0.134522
12.600000	-0.223472
12.620000	-0.065542
12.640000	0.110979
12.660000	0.058925
12.680000	-0.034512
12.700000	-0.102233
12.720000	-0.013752
12.740000	0.086878
12.760000	0.066491
12.780000	0.090993
12.800000	0.186820
12.820000	0.173959
12.840000	0.037668
12.860000	-0.061954
12.880000	-0.169258
12.900000	-0.136503
12.920000	-0.036255
12.940000	-0.172520
12.960000	-0.298986
12.980000	-0.120867
13.000000	0.126921
13.020000	0.170461
13.040000	0.058247
13.060000	-0.075812
13.080000	-0.125205
13.100000	-0.056594
13.120000	0.029183
13.140000	0.077169
13.160000	0.104138
13.180000	0.011961
13.200000	-0.116897
13.220000	-0.122593
13.240000	0.004063
13.260000	0.129539
13.280000	0.094081
13.300000	0.058190
13.320000	0.072265
13.340000	-0.034538
13.360000	-0.074191
13.380000	0.073929
13.400000	0.081106
13.420000	-0.000030
13.440000	0.089211
13.460000	0.129394
13.480000	0.034280
13.500000	0.014481
13.520000	-0.018617
13.540000	-0.140236
13.560000	-0.096386
13.580000	0.077972
13.600000	0.124834
13.620000	0.049844
13.640000	-0.100703
13.660000	-0.247821
13.680000	-0.276848
13.700000	-0.178878
13.720000	0.030682
13.740000	0.079684
13.760000	0.067756
13.780000	0.146485
13.800000	-0.032075
13.820000	-0.087227
13.840000	0.159499
13.860000	0.195851
13.880000	0.071035
13.900000	0.049590
13.920000	0.081346
13.940000	0.026886
13.960000	-0.113628
13.980000	-0.205320
14.000000	-0.110537
14.020000	-0.017190
14.040000	-0.035908
14.060000	-0.014179
14.080000	0.043000
14.100000	0.115883
14.120000	0.077898
14.140000	-0.055555
14.160000	-0.009543
14.180000	0.074758
14.200000	-0.083341
14.220000	-0.229791
14.240000	-0.165693
14.260000	-0.033912
14.280000	0.053580
14.300000	0.043679
14.320000	-0.000455
14.340000	-0.045330
14.360000	-0.001719
14.380000	0.090202
14.400000	0.008701
14.420000	-0.115225
14.440000	-0.039275
14.460000	0.045939
14.480000	-0.012565
14.500000	0.016411
14.520000	0.019975
14.540000	0.000036
14.560000	0.137913
14.580000	0.181922
14.600000	0.121040
14.620000	0.057166
14.640000	-0.002877
14.660000	0.029221
14.680000	0.024684
14.700000	-0.150229
14.720000	-0.293763
14.740000	-0.276469
14.760000	-0.195239
14.780000	-0.092559
14.800000	-0.028500
14.820000	0.043642
14.840000	0.068974
14.860000	-0.026456
14.880000	-0.023779
14.900000	0.101808
14.920000	0.177988
14.940000	0.167406
14.960000	0.132168
14.980000	0.091024
15.000000	0.128513
15.020000	0.210925
15.040000	0.104439
15.060000	-0.095477
15.080000	-0.097137
15.100000	0.040279
15.120000	0.091792
15.140000	0.076221
15.160000	0.007205
15.180000	-0.003712
15.200000	0.109515
15.220000	0.076225
15.240000	-0.029871
15.260000	-0.070067
15.280000	-0.138580
15.300000	-0.166190
15.320000	-0.119454
15.340000	-0.062270
15.360000	-0.023067
15.380000	-0.031464
15.400000	-0.107855
15.420000	-0.143714
15.440000	-0.144181
15.460000	-0.160831
15.480000	-0.080845
15.500000	0.043605
15.520000	0.074125
15.540000	0.032960
15.560000	0.043119
15.580000	0.009079
15.600000	-0.032399
15.620000	0.042274
15.640000	0.010994
15.660000	-0.001193
15.680000	0.032606
15.700000	0.006486
15.720000	0.126498
15.740000	0.146846
15.760000	-0.012573
15.780000	-0.030635
15.800000	0.092308
15.820000	0.169946
15.840000	0.090511
15.860000	0.011613
15.880000	-0.044109
15.900000	-0.069008
15.920000	0.045517
15.940000	0.096880
15.960000	0.080853
15.980000	0.069011
16.000000	-0.003531
16.020000	-0.071307
16.040000	-0.028132
16.060000	0.011163
16.080000	-0.021108
16.100000	-0.007905
16.120000	-0.064910
16.140000	-0.164510
16.160000	-0.173690
16.180000	-0.124159
16.200000	-0.087147
16.220000	-0.065091
16.240000	-0.015504
16.260000	0.101113
16.280000	0.179067
16.300000	0.081332
16.320000	-0.021607
16.340000	-0.097850
16.360000	-0.075882
16.380000	0.034662
16.400000	0.037393
16.420000	0.060677
16.440000	0.125150
16.460000	0.110464
16.480000	-0.008584
16.500000	-0.092779
16.520000	-0.044815
16.540000	-0.020177
16.560000	-0.007604
16.580000	0.088436
16.600000	0.154569
16.620000	0.052104
16.640000	-0.023954
16.660000	0.022478
16.680000	-0.046478
16.700000	-0.094140
16.720000	-0.080213
16.740000	-0.098333
16.760000	-0.030666
16.780000	0.042202
16.800000	0.039862
16.820000	-0.013024
16.840000	-0.081947
16.860000	-0.148027
16.880000	-0.086507
16.900000	0.057412
16.920000	0.073619
16.940000	0.051449
16.960000	0.066206
16.980000	0.008310
17.000000	0.034806
17.020000	0.209171
17.040000	0.174756
17.060000	0.021698
17.080000	-0.059022
17.100000	-0.114947
17.120000	-0.036782
17.140000	0.049199
17.160000	0.017793
17.180000	-0.005007
17.200000	0.001923
17.220000	0.046216
17.240000	0.024784
17.260000	-0.065725
17.280000	-0.050278
17.300000	-0.061805
17.320000	0.027964
17.340000	0.130296
17.360000	0.008797
17.380000	-0.062050
17.400000	-0.093468
17.420000	-0.057332
17.440000	0.008304
17.460000	-0.029477
17.480000	-0.036148
17.500000	0.022057
17.520000	0.066569
17.540000	0.039842
17.560000	0.004569
17.580000	-0.050898
17.600000	-0.017052
17.620000	0.143064
17.640000	0.205259
17.660000	0.075297
17.680000	-0.133371
17.700000	-0.095458
17.720000	0.098179
17.740000	0.128030
17.760000	0.071354
17.780000	0.032294
17.800000	-0.032412
17.820000	-0.133504
17.840000	-0.120058
17.860000	0.015501
17.880000	0.028134
17.900000	-0.116675
17.920000	-0.221898
17.940000	-0.189698
17.960000	-0.076357
17.980000	-0.037941
18.000000	-0.041836
18.020000	0.010120
18.040000	0.020858
18.060000	-0.031884
18.080000	-0.029931
18.100000	0.097511
18.120000	0.165781
18.140000	0.080797
18.160000	0.004873
18.180000	0.022813
18.200000	0.025939
18.220000	0.026420
18.240000	0.079462
18.260000	0.078819
18.280000	0.045426
18.300000	-0.046617
18.320000	-0.104423
18.340000	-0.104085
18.360000	-0.082340
18.380000	-0.007324
18.400000	-0.012693
18.420000	0.025408
18.440000	0.034336
18.460000	-0.025884
18.480000	0.061312
18.500000	0.064219
18.520000	-0.051903
18.540000	-0.058974
18.560000	-0.062419
18.580000	-0.079467
18.600000	0.029050
18.620000	0.134544
18.640000	0.140190
18.660000	0.153720
18.680000	0.091241
18.700000	-0.069374
18.720000	-0.157199
18.740000	-0.145065
18.760000	-0.117099
18.780000	-0.113455
18.800000	-0.059988
18.820000	0.013165
18.840000	0.052364
18.860000	0.116076
18.880000	0.092040
18.900000	-0.002558
18.920000	-0.016082
18.940000	0.012676
18.960000	0.086643
18.980000	0.145519
19.000000	0.198056
19.020000	0.182895
19.040000	-0.040713
19.060000	-0.169921
19.080000	-0.153747
19.100000	-0.197983
19.120000	-0.161205
19.140000	-0.026494
19.160000	0.060082
19.180000	0.019490
19.200000	-0.114213
19.220000	-0.127990
19.240000	-0.126277
19.260000	-0.157979
19.280000	-0.052840
19.300000	0.042892
19.320000	0.041118
19.340000	-0.035673
19.360000	-0.025999
19.380000	0.066472
19.400000	0.080325
19.420000	0.064791
19.440000	0.079160
19.460000	0.159137
19.480000	0.180754
19.500000	0.155835
19.520000	0.222285
19.540000	0.293048
19.560000	0.281705
19.580000	0.287756
19.600000	0.333854
19.620000	0.316305
19.640000	0.232525
19.660000	0.154878
19.680000	0.058990
19.700000	-0.157561
19.720000	-0.364417
19.740000	-0.427833
19.760000	-0.345248
19.780000	-0.196100
