Tiempo(s)	Amplitud(mm)
# npts=12001
# fs=50.0000 Hz
# duracion=240.0000 s

0.000000	0.000045
0.020000	0.000046
0.040000	0.000057
0.060000	0.000082
0.080000	0.000129
0.100000	0.000198
0.120000	0.000295
0.140000	0.000417
0.160000	0.000568
0.180000	0.000744
0.200000	0.000948
0.220000	0.001175
0.240000	0.001426
0.260000	0.001698
0.280000	0.001990
0.300000	0.002300
0.320000	0.002626
0.340000	0.002965
0.360000	0.003318
0.380000	0.003681
0.400000	0.004054
0.420000	0.004434
0.440000	0.004822
0.460000	0.005214
0.480000	0.005612
0.500000	0.006013
0.520000	0.006417
0.540000	0.006823
0.560000	0.007231
0.580000	0.007639
0.600000	0.008048
0.620000	0.008456
0.640000	0.008865
0.660000	0.009272
0.680000	0.009680
0.700000	0.010086
0.720000	0.010491
0.740000	0.010894
0.760000	0.011297
0.780000	0.011697
0.800000	0.012096
0.820000	0.012493
0.840000	0.012889
0.860000	0.013283
0.880000	0.013676
0.900000	0.014066
0.920000	0.014455
0.940000	0.014841
0.960000	0.015227
0.980000	0.015609
1.000000	0.015991
1.020000	0.016370
1.040000	0.016748
1.060000	0.017122
1.080000	0.017496
1.100000	0.017867
1.120000	0.018237
1.140000	0.018603
1.160000	0.018969
1.180000	0.019331
1.200000	0.019692
1.220000	0.020050
1.240000	0.020407
1.260000	0.020760
1.280000	0.021112
1.300000	0.021460
1.320000	0.021807
1.340000	0.022150
1.360000	0.022492
1.380000	0.022830
1.400000	0.023166
1.420000	0.023499
1.440000	0.023830
1.460000	0.024157
1.480000	0.024482
1.500000	0.024803
1.520000	0.025122
1.540000	0.025438
1.560000	0.025751
1.580000	0.026061
1.600000	0.026368
1.620000	0.026670
1.640000	0.026971
1.660000	0.027267
1.680000	0.027560
1.700000	0.027850
1.720000	0.028138
1.740000	0.028422
1.760000	0.028701
1.780000	0.028976
1.800000	0.029250
1.820000	0.029520
1.840000	0.029787
1.860000	0.030048
1.880000	0.030307
1.900000	0.030558
1.920000	0.030807
1.940000	0.031053
1.960000	0.031297
1.980000	0.031536
2.000000	0.031770
2.020000	0.031998
2.040000	0.032221
2.060000	0.032439
2.080000	0.032656
2.100000	0.032866
2.120000	0.033077
2.140000	0.033283
2.160000	0.033482
2.180000	0.033671
2.200000	0.033859
2.220000	0.034046
2.240000	0.034226
2.260000	0.034400
2.280000	0.034579
2.300000	0.034747
2.320000	0.034905
2.340000	0.035054
2.360000	0.035201
2.380000	0.035346
2.400000	0.035496
2.420000	0.035638
2.440000	0.035761
2.460000	0.035881
2.480000	0.035993
2.500000	0.036101
2.520000	0.036223
2.540000	0.036322
2.560000	0.036420
2.580000	0.036527
2.600000	0.036614
2.620000	0.036690
2.640000	0.036773
2.660000	0.036846
2.680000	0.036909
2.700000	0.036980
2.720000	0.037054
2.740000	0.037106
2.760000	0.037146
2.780000	0.037176
2.800000	0.037208
2.820000	0.037241
2.840000	0.037279
2.860000	0.037309
2.880000	0.037323
2.900000	0.037320
2.920000	0.037308
2.940000	0.037313
2.960000	0.037323
2.980000	0.037317
3.000000	0.037297
3.020000	0.037282
3.040000	0.037249
3.060000	0.037186
3.080000	0.037164
3.100000	0.037142
3.120000	0.037088
3.140000	0.037066
3.160000	0.037022
3.180000	0.036919
3.200000	0.036865
3.220000	0.036781
3.240000	0.036670
3.260000	0.036625
3.280000	0.036566
3.300000	0.036475
3.320000	0.036419
3.340000	0.036305
3.360000	0.036178
3.380000	0.036106
3.400000	0.036002
3.420000	0.035909
3.440000	0.035795
3.460000	0.035658
3.480000	0.035522
3.500000	0.035374
3.520000	0.035276
3.540000	0.035126
3.560000	0.034989
3.580000	0.034908
3.600000	0.034770
3.620000	0.034514
3.640000	0.034329
3.660000	0.034248
3.680000	0.033996
3.700000	0.033794
3.720000	0.033719
3.740000	0.033553
3.760000	0.033354
3.780000	0.033117
3.800000	0.032884
3.820000	0.032711
3.840000	0.032577
3.860000	0.032303
3.880000	0.032023
3.900000	0.031892
3.920000	0.031570
3.940000	0.031250
3.960000	0.031088
3.980000	0.030827
4.000000	0.030497
4.020000	0.030312
4.040000	0.030074
4.060000	0.029779
4.080000	0.029573
4.100000	0.029317
4.120000	0.029091
4.140000	0.028835
4.160000	0.028613
4.180000	0.028340
4.200000	0.027974
4.220000	0.027696
4.240000	0.027336
4.260000	0.027088
4.280000	0.026900
4.300000	0.026523
4.320000	0.026147
4.340000	0.025805
4.360000	0.025488
4.380000	0.025123
4.400000	0.024806
4.420000	0.024470
4.440000	0.024044
4.460000	0.023635
4.480000	0.023250
4.500000	0.022804
4.520000	0.022514
4.540000	0.022190
4.560000	0.021662
4.580000	0.021414
4.600000	0.021094
4.620000	0.020407
4.640000	0.020081
4.660000	0.019881
4.680000	0.019267
4.700000	0.018802
4.720000	0.018637
4.740000	0.018234
4.760000	0.017568
4.780000	0.017186
4.800000	0.016865
4.820000	0.016318
4.840000	0.016077
4.860000	0.015843
4.880000	0.015358
4.900000	0.015016
4.920000	0.014732
4.940000	0.014203
4.960000	0.013891
4.980000	0.013790
5.000000	0.013417
5.020000	0.013081
5.040000	0.012686
5.060000	0.012239
5.080000	0.011986
5.100000	0.011687
5.120000	0.011098
5.140000	0.010825
5.160000	0.010772
5.180000	0.010234
5.200000	0.009763
5.220000	0.009249
5.240000	0.008939
5.260000	0.008663
5.280000	0.008214
5.300000	0.007960
5.320000	0.007556
5.340000	0.007228
5.360000	0.006887
5.380000	0.006386
5.400000	0.006132
5.420000	0.005845
5.440000	0.005625
5.460000	0.005344
5.480000	0.004966
5.500000	0.004688
5.520000	0.004633
5.540000	0.004481
5.560000	0.003899
5.580000	0.003768
5.600000	0.003791
5.620000	0.003481
5.640000	0.003358
5.660000	0.003065
5.680000	0.002748
5.700000	0.002917
5.720000	0.003143
5.740000	0.002668
5.760000	0.002236
5.780000	0.002280
5.800000	0.002357
5.820000	0.001892
5.840000	0.001731
5.860000	0.001693
5.880000	0.000965
5.900000	0.000715
5.920000	0.000517
5.940000	0.000307
5.960000	0.000302
5.980000	-0.000066
6.000000	-0.000397
6.020000	-0.000567
6.040000	-0.000697
6.060000	-0.001061
6.080000	-0.001364
6.100000	-0.001111
6.120000	-0.001349
6.140000	-0.001520
6.160000	-0.001078
6.180000	-0.001497
6.200000	-0.001899
6.220000	-0.001609
6.240000	-0.001843
6.260000	-0.002406
6.280000	-0.002255
6.300000	-0.002513
6.320000	-0.002950
6.340000	-0.002902
6.360000	-0.003216
6.380000	-0.003111
6.400000	-0.002719
6.420000	-0.002898
6.440000	-0.003101
6.460000	-0.003067
6.480000	-0.003318
6.500000	-0.003571
6.520000	-0.003482
6.540000	-0.003224
6.560000	-0.003438
6.580000	-0.003860
6.600000	-0.003690
6.620000	-0.003753
6.640000	-0.003847
6.660000	-0.003761
6.680000	-0.003899
6.700000	-0.003863
6.720000	-0.003684
6.740000	-0.003696
6.760000	-0.003865
6.780000	-0.003922
6.800000	-0.004222
6.820000	-0.004804
6.840000	-0.004803
6.860000	-0.004602
6.880000	-0.004912
6.900000	-0.004988
6.920000	-0.005165
6.940000	-0.005311
6.960000	-0.005116
6.980000	-0.005379
7.000000	-0.005675
7.020000	-0.005678
7.040000	-0.005895
7.060000	-0.006165
7.080000	-0.005997
7.100000	-0.005817
7.120000	-0.006038
7.140000	-0.006300
7.160000	-0.006554
7.180000	-0.006753
7.200000	-0.006659
7.220000	-0.006581
7.240000	-0.006672
7.260000	-0.006964
7.280000	-0.006655
7.300000	-0.006475
7.320000	-0.007151
7.340000	-0.006822
7.360000	-0.006465
7.380000	-0.006716
7.400000	-0.006520
7.420000	-0.006092
7.440000	-0.006184
7.460000	-0.006450
7.480000	-0.006344
7.500000	-0.006384
7.520000	-0.006410
7.540000	-0.006502
7.560000	-0.006647
7.580000	-0.006535
7.600000	-0.006666
7.620000	-0.006924
7.640000	-0.006784
7.660000	-0.006406
7.680000	-0.006501
7.700000	-0.006606
7.720000	-0.006419
7.740000	-0.006566
7.760000	-0.006922
7.780000	-0.006858
7.800000	-0.006826
7.820000	-0.006806
7.840000	-0.006396
7.860000	-0.006381
7.880000	-0.006281
7.900000	-0.005847
7.920000	-0.005938
7.940000	-0.005561
7.960000	-0.004606
7.980000	-0.004134
8.000000	-0.004092
8.020000	-0.003601
8.040000	-0.003039
8.060000	-0.002565
8.080000	-0.001969
8.100000	-0.001292
8.120000	-0.000705
8.140000	-0.000796
8.160000	-0.000597
8.180000	0.000062
8.200000	0.000606
8.220000	0.000905
8.240000	0.000854
8.260000	0.001080
8.280000	0.001244
8.300000	0.001089
8.320000	0.001128
8.340000	0.001186
8.360000	0.001017
8.380000	0.001102
8.400000	0.001373
8.420000	0.001321
8.440000	0.001220
8.460000	0.000797
8.480000	0.000396
8.500000	0.000810
8.520000	0.000704
8.540000	0.000497
8.560000	0.000718
8.580000	0.000218
8.600000	-0.000362
8.620000	-0.000641
8.640000	-0.001047
8.660000	-0.001412
8.680000	-0.001762
8.700000	-0.002195
8.720000	-0.001884
8.740000	-0.001952
8.760000	-0.002886
8.780000	-0.003134
8.800000	-0.003701
8.820000	-0.004376
8.840000	-0.005009
8.860000	-0.006051
8.880000	-0.006991
8.900000	-0.007895
8.920000	-0.008407
8.940000	-0.009099
8.960000	-0.009439
8.980000	-0.009724
9.000000	-0.010476
9.020000	-0.010490
9.040000	-0.011758
9.060000	-0.011237
9.080000	-0.012487
9.100000	-0.011687
9.120000	-0.013332
9.140000	-0.013521
9.160000	-0.013306
9.180000	-0.016146
9.200000	-0.011133
9.220000	-0.019155
9.240000	-0.009763
9.260000	-0.020908
9.280000	-0.010373
9.300000	-0.018529
9.320000	-0.016270
9.340000	-0.010205
9.360000	-0.027957
9.380000	0.002735
9.400000	-0.040973
9.420000	0.013055
9.440000	-0.045784
9.460000	0.009884
9.480000	-0.032330
9.500000	-0.015551
9.520000	0.005688
9.540000	-0.061967
9.560000	0.057805
9.580000	-0.113654
9.600000	0.100753
9.620000	-0.136740
9.640000	0.095980
9.660000	-0.100605
9.680000	-0.519572
9.700000	-2.558789
9.720000	-2.233173
9.740000	1.888333
9.760000	-0.462986
9.780000	-0.212847
9.800000	-0.216451
9.820000	-0.458922
9.840000	1.970634
9.860000	0.522940
9.880000	3.328602
9.900000	1.268509
9.920000	-0.635959
9.940000	0.811593
9.960000	0.711093
9.980000	1.220153
10.000000	-1.454241
10.020000	-0.369419
10.040000	0.316306
10.060000	-0.680520
10.080000	-0.665878
10.100000	-0.151018
10.120000	0.585995
10.140000	-0.178661
10.160000	-1.591770
10.180000	-1.651325
10.200000	-0.366295
10.220000	0.848196
10.240000	3.029902
10.260000	-1.292031
10.280000	-2.816084
10.300000	-0.207772
10.320000	0.196133
10.340000	3.467453
10.360000	-0.529100
10.380000	-1.335252
10.400000	1.954718
10.420000	-0.821722
10.440000	1.199756
10.460000	1.322437
10.480000	-1.347806
10.500000	-0.486935
10.520000	-0.885312
10.540000	-0.297845
10.560000	0.527132
10.580000	-0.249520
10.600000	-0.278015
10.620000	-0.409953
10.640000	-0.371662
10.660000	-0.438649
10.680000	-0.692486
10.700000	-0.221012
10.720000	0.416674
10.740000	0.650838
10.760000	-1.279121
10.780000	-0.076557
10.800000	2.293511
10.820000	-0.358286
10.840000	-0.947295
10.860000	0.171780
10.880000	1.038508
10.900000	1.111396
10.920000	-1.153764
10.940000	-0.781159
10.960000	0.999749
10.980000	-0.332555
11.000000	-0.770539
11.020000	-0.344004
11.040000	0.902095
11.060000	1.025590
11.080000	-2.227441
11.100000	0.902890
11.120000	0.786980
11.140000	-1.463957
11.160000	0.935867
11.180000	0.188250
11.200000	0.200515
11.220000	-0.627946
11.240000	-0.096627
11.260000	0.613992
11.280000	0.504961
11.300000	-0.688627
11.320000	-0.911528
11.340000	1.339605
11.360000	-0.638651
11.380000	-1.022487
11.400000	0.150794
11.420000	0.428679
11.440000	-0.520180
11.460000	0.047064
11.480000	1.037767
11.500000	-0.193755
11.520000	0.684071
11.540000	0.436163
11.560000	-0.443017
11.580000	-0.649131
11.600000	-0.254840
11.620000	0.042621
11.640000	-0.543236
11.660000	-0.563486
11.680000	0.583559
11.700000	0.833913
11.720000	0.230925
11.740000	0.233975
11.760000	-0.557111
11.780000	0.999699
11.800000	0.059943
11.820000	-1.014947
11.840000	1.409728
11.860000	-0.607389
11.880000	-0.391548
11.900000	1.250820
11.920000	-0.501948
11.940000	-0.316637
11.960000	-0.620196
11.980000	-0.263149
12.000000	0.265936
12.020000	-1.994279
12.040000	-0.162188
12.060000	1.506475
12.080000	-0.255875
12.100000	0.247011
12.120000	-0.529935
12.140000	-0.265712
12.160000	1.088749
12.180000	0.183969
12.200000	0.621473
12.220000	-0.232704
12.240000	-0.649945
12.260000	0.926259
12.280000	0.063667
12.300000	-0.600183
12.320000	-0.248580
12.340000	-0.193402
12.360000	0.055140
12.380000	0.274481
12.400000	0.208579
12.420000	-0.065636
12.440000	-0.245653
12.460000	0.142993
12.480000	0.724726
12.500000	0.019110
12.520000	-0.053413
12.540000	-0.184342
12.560000	-0.364044
12.580000	-0.007257
12.600000	-0.287721
12.620000	0.470423
12.640000	0.299181
12.660000	-0.076628
12.680000	0.290049
12.700000	0.527784
12.720000	0.110680
12.740000	-1.524629
12.760000	-0.822167
12.780000	0.034553
12.800000	0.173581
12.820000	0.233488
12.840000	-0.580026
12.860000	0.968995
12.880000	0.049882
12.900000	-1.328020
12.920000	0.506949
12.940000	0.112316
12.960000	-0.412564
12.980000	-0.341135
13.000000	0.778992
13.020000	0.941047
13.040000	-0.489132
13.060000	0.695479
13.080000	1.322329
13.100000	-0.107493
13.120000	-1.146143
13.140000	-0.029005
13.160000	0.567806
13.180000	0.183244
13.200000	-0.264093
13.220000	-0.801555
13.240000	0.664599
13.260000	-0.293552
13.280000	-1.426977
13.300000	0.161125
13.320000	-0.357705
13.340000	0.045426
13.360000	0.416464
13.380000	-1.154424
13.400000	0.043449
13.420000	1.872203
13.440000	1.022006
13.460000	-0.071413
13.480000	0.444948
13.500000	-1.061997
13.520000	-1.915987
13.540000	0.366001
13.560000	0.360675
13.580000	0.260472
13.600000	-0.327339
13.620000	-0.187273
13.640000	1.543634
13.660000	-0.705385
13.680000	-0.082675
13.700000	0.671591
13.720000	-1.431275
13.740000	0.593898
13.760000	0.559575
13.780000	0.124823
13.800000	0.101548
13.820000	-0.285821
13.840000	0.192207
13.860000	-1.526314
13.880000	-0.189866
13.900000	0.531616
13.920000	-0.165748
13.940000	0.197354
13.960000	-0.241654
13.980000	0.594141
14.000000	0.201996
14.020000	-0.278208
14.040000	-0.125012
14.060000	-0.357401
14.080000	-0.069186
14.100000	-0.578172
14.120000	-0.369935
14.140000	0.394030
14.160000	0.332577
14.180000	0.972771
14.200000	0.337236
14.220000	-0.885490
14.240000	0.937888
14.260000	0.652528
14.280000	-0.205195
14.300000	1.027198
14.320000	-0.274167
14.340000	-0.319386
14.360000	0.038818
14.380000	0.263254
14.400000	0.473438
14.420000	-0.340038
14.440000	-0.885143
14.460000	-0.880308
14.480000	1.300800
14.500000	-0.331674
14.520000	-0.474793
14.540000	1.205650
14.560000	-0.842496
14.580000	0.229351
14.600000	-0.073262
14.620000	-0.438273
14.640000	1.103928
14.660000	-0.230095
14.680000	-0.698039
14.700000	-0.707045
14.720000	0.082080
14.740000	0.408126
14.760000	-1.193088
14.780000	-1.011128
14.800000	0.218703
14.820000	0.586331
14.840000	-0.830457
14.860000	-0.139058
14.880000	0.903023
14.900000	-0.151928
14.920000	-0.310718
14.940000	0.099089
14.960000	1.177653
14.980000	-0.296896
15.000000	-0.872409
15.020000	0.392164
15.040000	-0.241026
15.060000	0.626940
15.080000	0.348101
15.100000	-0.223969
15.120000	0.451132
15.140000	-0.247489
15.160000	0.367115
15.180000	0.561724
15.200000	0.053251
15.220000	0.302427
15.240000	-0.186426
15.260000	-0.595848
15.280000	-0.069229
15.300000	-0.184211
15.320000	-0.232787
15.340000	0.505239
15.360000	0.120258
15.380000	0.653719
15.400000	-0.264312
15.420000	-0.331525
15.440000	0.166850
15.460000	-1.571482
15.480000	0.520862
15.500000	1.152689
15.520000	-0.801383
15.540000	-0.342667
15.560000	-0.218107
15.580000	-0.449163
15.600000	0.366575
15.620000	0.157574
15.640000	0.428509
15.660000	0.082665
15.680000	-0.503033
15.700000	0.898792
15.720000	0.066154
15.740000	-0.091438
15.760000	0.065605
15.780000	0.172455
15.800000	0.640420
15.820000	-0.533182
15.840000	-0.502227
15.860000	-0.273414
15.880000	0.356097
15.900000	0.196614
15.920000	-0.541472
15.940000	0.001217
15.960000	0.515782
15.980000	0.468084
16.000000	-0.077624
16.020000	-0.037706
16.040000	-0.535803
16.060000	-0.924571
16.080000	0.314202
16.100000	0.938444
16.120000	0.143123
16.140000	-0.454207
16.160000	-0.148054
16.180000	0.692889
16.200000	-0.072370
16.220000	-1.091984
16.240000	0.146883
16.260000	0.905044
16.280000	0.075516
16.300000	-0.978265
16.320000	-0.358198
16.340000	0.592176
16.360000	-0.215775
16.380000	-0.229491
16.400000	1.237055
16.420000	-0.185402
16.440000	-1.107061
16.460000	0.245440
16.480000	-0.096257
16.500000	0.423668
16.520000	-0.696641
16.540000	0.062378
16.560000	1.023389
16.580000	-0.793898
16.600000	-0.950446
16.620000	-1.348395
16.640000	0.672581
16.660000	0.853276
16.680000	-0.692669
16.700000	0.487098
16.720000	0.933870
16.740000	-0.162426
16.760000	0.538410
16.780000	0.108077
16.800000	-0.468836
16.820000	1.029034
16.840000	-0.365230
16.860000	0.342399
16.880000	-0.958134
16.900000	-1.668047
16.920000	1.434170
16.940000	0.243293
16.960000	-0.875700
16.980000	0.000239
17.000000	0.575916
17.020000	-0.145906
17.040000	0.787864
17.060000	1.172939
17.080000	-0.183294
17.100000	-0.041538
17.120000	-0.255996
17.140000	0.295854
17.160000	-0.240283
17.180000	-0.683659
17.200000	-0.195666
17.220000	-1.133115
17.240000	0.728282
17.260000	1.238697
17.280000	-0.390556
17.300000	0.705551
17.320000	0.551760
17.340000	-0.299287
17.360000	-0.457020
17.380000	-0.810275
17.400000	-0.193589
17.420000	0.464446
17.440000	-0.448376
17.460000	-0.738085
17.480000	0.312563
17.500000	-0.259448
17.520000	-0.809360
17.540000	0.399004
17.560000	0.224999
17.580000	0.134093
17.600000	1.037949
17.620000	-0.126732
17.640000	-0.602444
17.660000	-0.717723
17.680000	0.398654
17.700000	0.538361
17.720000	-1.479988
17.740000	0.030734
17.760000	0.831019
17.780000	0.200624
17.800000	-0.546224
17.820000	0.019361
17.840000	0.313540
17.860000	-0.576306
17.880000	0.466254
17.900000	0.670851
17.920000	1.148025
17.940000	-0.163150
17.960000	-0.850330
17.980000	0.335581
18.000000	-0.604617
18.020000	0.166439
18.040000	0.995646
18.060000	-0.626357
18.080000	-0.726213
18.100000	0.655966
18.120000	0.130561
18.140000	-1.041269
18.160000	-0.869929
18.180000	0.346862
18.200000	0.405926
18.220000	-0.117760
18.240000	0.211999
18.260000	0.610963
18.280000	0.036334
18.300000	-0.933593
18.320000	0.380617
18.340000	0.993442
18.360000	0.303740
18.380000	-0.831126
18.400000	-0.738132
18.420000	1.213508
18.440000	0.674583
18.460000	0.136654
18.480000	-0.439845
18.500000	-0.573536
18.520000	0.432254
18.540000	0.049984
18.560000	0.227287
18.580000	-0.715787
18.600000	-0.726458
18.620000	0.473909
18.640000	0.190303
18.660000	0.182028
18.680000	-0.709508
18.700000	-0.462915
18.720000	0.274791
18.740000	-0.086901
18.760000	-0.315205
18.780000	0.270258
18.800000	0.622645
18.820000	-0.504401
18.840000	0.649367
18.860000	0.161448
18.880000	-1.230721
18.900000	-0.414189
18.920000	0.295214
18.940000	0.779295
18.960000	-0.459846
18.980000	0.542625
19.000000	0.588923
19.020000	0.318207
19.040000	0.374691
19.060000	-1.303202
19.080000	0.807590
19.100000	0.119781
19.120000	-1.045241
19.140000	0.414272
19.160000	0.034757
19.180000	0.093250
19.200000	-0.428947
19.220000	-0.705670
19.240000	-0.210278
19.260000	0.099253
19.280000	0.276647
19.300000	0.301008
19.320000	-0.034432
19.340000	0.209723
19.360000	0.509346
19.380000	0.225487
19.400000	0.478951
19.420000	0.344401
19.440000	0.283866
19.460000	-1.199948
19.480000	-0.089059
19.500000	1.829139
19.520000	-0.635718
19.540000	-0.697809
19.560000	0.448713
19.580000	0.232231
19.600000	-0.261062
19.620000	0.169599
19.640000	0.367630
19.660000	0.445957
19.680000	1.457047
19.700000	0.286577
19.720000	-1.031997
19.740000	-1.276213
19.760000	0.165722
19.780000	-0.640565
19.800000	-2.650350
19.820000	-0.706901
19.840000	2.159754
19.860000	1.811571
19.880000	0.741627
19.900000	3.029987
19.920000	-0.067734
19.940000	-3.216885
19.960000	-1.905383
19.980000	-0.689197
