Tiempo(s)	Amplitud(mm)
# npts=18501
# fs=50.0000 Hz
# duracion=370.0000 s

0.000000	-0.000001
0.020000	-0.000001
0.040000	-0.000000
0.060000	0.000001
0.080000	0.000003
0.100000	0.000006
0.120000	0.000011
0.140000	0.000016
0.160000	0.000024
0.180000	0.000032
0.200000	0.000042
0.220000	0.000052
0.240000	0.000064
0.260000	0.000076
0.280000	0.000090
0.300000	0.000104
0.320000	0.000119
0.340000	0.000135
0.360000	0.000151
0.380000	0.000168
0.400000	0.000185
0.420000	0.000202
0.440000	0.000220
0.460000	0.000238
0.480000	0.000256
0.500000	0.000274
0.520000	0.000293
0.540000	0.000311
0.560000	0.000329
0.580000	0.000347
0.600000	0.000366
0.620000	0.000384
0.640000	0.000403
0.660000	0.000420
0.680000	0.000439
0.700000	0.000457
0.720000	0.000475
0.740000	0.000492
0.760000	0.000511
0.780000	0.000528
0.800000	0.000546
0.820000	0.000563
0.840000	0.000581
0.860000	0.000597
0.880000	0.000615
0.900000	0.000632
0.920000	0.000649
0.940000	0.000665
0.960000	0.000682
0.980000	0.000699
1.000000	0.000716
1.020000	0.000732
1.040000	0.000748
1.060000	0.000764
1.080000	0.000781
1.100000	0.000796
1.120000	0.000813
1.140000	0.000828
1.160000	0.000844
1.180000	0.000859
1.200000	0.000875
1.220000	0.000890
1.240000	0.000906
1.260000	0.000920
1.280000	0.000936
1.300000	0.000950
1.320000	0.000966
1.340000	0.000980
1.360000	0.000995
1.380000	0.001009
1.400000	0.001024
1.420000	0.001038
1.440000	0.001052
1.460000	0.001066
1.480000	0.001080
1.500000	0.001093
1.520000	0.001107
1.540000	0.001121
1.560000	0.001134
1.580000	0.001147
1.600000	0.001161
1.620000	0.001173
1.640000	0.001187
1.660000	0.001199
1.680000	0.001212
1.700000	0.001224
1.720000	0.001237
1.740000	0.001249
1.760000	0.001262
1.780000	0.001273
1.800000	0.001286
1.820000	0.001297
1.840000	0.001309
1.860000	0.001320
1.880000	0.001332
1.900000	0.001342
1.920000	0.001353
1.940000	0.001363
1.960000	0.001373
1.980000	0.001383
2.000000	0.001393
2.020000	0.001402
2.040000	0.001412
2.060000	0.001421
2.080000	0.001431
2.100000	0.001440
2.120000	0.001450
2.140000	0.001458
2.160000	0.001468
2.180000	0.001476
2.200000	0.001484
2.220000	0.001492
2.240000	0.001500
2.260000	0.001507
2.280000	0.001516
2.300000	0.001523
2.320000	0.001532
2.340000	0.001539
2.360000	0.001547
2.380000	0.001555
2.400000	0.001563
2.420000	0.001570
2.440000	0.001578
2.460000	0.001585
2.480000	0.001592
2.500000	0.001598
2.520000	0.001605
2.540000	0.001610
2.560000	0.001616
2.580000	0.001621
2.600000	0.001626
2.620000	0.001631
2.640000	0.001635
2.660000	0.001639
2.680000	0.001643
2.700000	0.001644
2.720000	0.001647
2.740000	0.001649
2.760000	0.001652
2.780000	0.001655
2.800000	0.001658
2.820000	0.001661
2.840000	0.001664
2.860000	0.001666
2.880000	0.001668
2.900000	0.001670
2.920000	0.001673
2.940000	0.001674
2.960000	0.001675
2.980000	0.001671
3.000000	0.001667
3.020000	0.001661
3.040000	0.001654
3.060000	0.001646
3.080000	0.001639
3.100000	0.001630
3.120000	0.001624
3.140000	0.001616
3.160000	0.001608
3.180000	0.001598
3.200000	0.001588
3.220000	0.001577
3.240000	0.001568
3.260000	0.001556
3.280000	0.001545
3.300000	0.001533
3.320000	0.001521
3.340000	0.001506
3.360000	0.001492
3.380000	0.001472
3.400000	0.001452
3.420000	0.001431
3.440000	0.001414
3.460000	0.001396
3.480000	0.001378
3.500000	0.001362
3.520000	0.001351
3.540000	0.001338
3.560000	0.001327
3.580000	0.001317
3.600000	0.001314
3.620000	0.001309
3.640000	0.001303
3.660000	0.001294
3.680000	0.001282
3.700000	0.001265
3.720000	0.001255
3.740000	0.001253
3.760000	0.001253
3.780000	0.001259
3.800000	0.001281
3.820000	0.001297
3.840000	0.001309
3.860000	0.001323
3.880000	0.001346
3.900000	0.001367
3.920000	0.001380
3.940000	0.001392
3.960000	0.001416
3.980000	0.001445
4.000000	0.001462
4.020000	0.001476
4.040000	0.001492
4.060000	0.001509
4.080000	0.001521
4.100000	0.001527
4.120000	0.001535
4.140000	0.001526
4.160000	0.001523
4.180000	0.001521
4.200000	0.001526
4.220000	0.001546
4.240000	0.001563
4.260000	0.001588
4.280000	0.001612
4.300000	0.001623
4.320000	0.001632
4.340000	0.001629
4.360000	0.001626
4.380000	0.001637
4.400000	0.001629
4.420000	0.001610
4.440000	0.001608
4.460000	0.001618
4.480000	0.001610
4.500000	0.001584
4.520000	0.001580
4.540000	0.001547
4.560000	0.001475
4.580000	0.001427
4.600000	0.001393
4.620000	0.001347
4.640000	0.001300
4.660000	0.001262
4.680000	0.001246
4.700000	0.001239
4.720000	0.001253
4.740000	0.001259
4.760000	0.001233
4.780000	0.001179
4.800000	0.001131
4.820000	0.001069
4.840000	0.000980
4.860000	0.000897
4.880000	0.000780
4.900000	0.000645
4.920000	0.000526
4.940000	0.000406
4.960000	0.000278
4.980000	0.000141
5.000000	0.000010
5.020000	-0.000173
5.040000	-0.000347
5.060000	-0.000505
5.080000	-0.000696
5.100000	-0.000884
5.120000	-0.001043
5.140000	-0.001175
5.160000	-0.001354
5.180000	-0.001529
5.200000	-0.001662
5.220000	-0.001838
5.240000	-0.001978
5.260000	-0.002116
5.280000	-0.002254
5.300000	-0.002334
5.320000	-0.002371
5.340000	-0.002449
5.360000	-0.002513
5.380000	-0.002465
5.400000	-0.002407
5.420000	-0.002373
5.440000	-0.002336
5.460000	-0.002237
5.480000	-0.002144
5.500000	-0.002101
5.520000	-0.001978
5.540000	-0.001848
5.560000	-0.001720
5.580000	-0.001622
5.600000	-0.001583
5.620000	-0.001529
5.640000	-0.001406
5.660000	-0.001265
5.680000	-0.001090
5.700000	-0.000943
5.720000	-0.000865
5.740000	-0.000761
5.760000	-0.000669
5.780000	-0.000690
5.800000	-0.000731
5.820000	-0.000756
5.840000	-0.000797
5.860000	-0.000834
5.880000	-0.000838
5.900000	-0.000884
5.920000	-0.000939
5.940000	-0.000936
5.960000	-0.000853
5.980000	-0.000723
6.000000	-0.000591
6.020000	-0.000381
6.040000	-0.000181
6.060000	-0.000035
6.080000	0.000185
6.100000	0.000451
6.120000	0.000689
6.140000	0.000869
6.160000	0.001040
6.180000	0.001212
6.200000	0.001320
6.220000	0.001469
6.240000	0.001639
6.260000	0.001712
6.280000	0.001728
6.300000	0.001734
6.320000	0.001748
6.340000	0.001716
6.360000	0.001596
6.380000	0.001407
6.400000	0.001177
6.420000	0.001000
6.440000	0.000963
6.460000	0.000947
6.480000	0.000820
6.500000	0.000698
6.520000	0.000732
6.540000	0.000948
6.560000	0.001124
6.580000	0.001297
6.600000	0.001578
6.620000	0.001736
6.640000	0.001912
6.660000	0.002209
6.680000	0.002478
6.700000	0.002742
6.720000	0.003124
6.740000	0.003660
6.760000	0.004046
6.780000	0.004395
6.800000	0.004865
6.820000	0.005305
6.840000	0.005702
6.860000	0.006028
6.880000	0.006289
6.900000	0.006489
6.920000	0.006672
6.940000	0.006813
6.960000	0.006827
6.980000	0.006772
7.000000	0.006685
7.020000	0.006512
7.040000	0.006331
7.060000	0.006090
7.080000	0.005674
7.100000	0.005270
7.120000	0.004822
7.140000	0.004386
7.160000	0.004153
7.180000	0.003806
7.200000	0.003226
7.220000	0.002746
7.240000	0.002329
7.260000	0.001828
7.280000	0.001319
7.300000	0.000660
7.320000	0.000087
7.340000	-0.000386
7.360000	-0.000944
7.380000	-0.001611
7.400000	-0.002178
7.420000	-0.002434
7.440000	-0.002667
7.460000	-0.002970
7.480000	-0.003140
7.500000	-0.003166
7.520000	-0.003224
7.540000	-0.003409
7.560000	-0.003387
7.580000	-0.003382
7.600000	-0.003615
7.620000	-0.003969
7.640000	-0.004175
7.660000	-0.004428
7.680000	-0.004953
7.700000	-0.005449
7.720000	-0.005711
7.740000	-0.005865
7.760000	-0.006026
7.780000	-0.006046
7.800000	-0.006028
7.820000	-0.006108
7.840000	-0.005906
7.860000	-0.005524
7.880000	-0.005258
7.900000	-0.004973
7.920000	-0.004613
7.940000	-0.004251
7.960000	-0.003921
7.980000	-0.003580
8.000000	-0.003240
8.020000	-0.002997
8.040000	-0.002796
8.060000	-0.002657
8.080000	-0.002560
8.100000	-0.002429
8.120000	-0.002239
8.140000	-0.002140
8.160000	-0.002129
8.180000	-0.002077
8.200000	-0.002175
8.220000	-0.002332
8.240000	-0.002347
8.260000	-0.002253
8.280000	-0.002162
8.300000	-0.002044
8.320000	-0.001886
8.340000	-0.001613
8.360000	-0.001375
8.380000	-0.001460
8.400000	-0.001401
8.420000	-0.001214
8.440000	-0.000909
8.460000	-0.000537
8.480000	-0.000324
8.500000	0.000178
8.520000	0.000617
8.540000	0.001019
8.560000	0.001604
8.580000	0.002320
8.600000	0.003238
8.620000	0.004057
8.640000	0.005039
8.660000	0.006220
8.680000	0.007397
8.700000	0.008438
8.720000	0.009304
8.740000	0.010026
8.760000	0.010971
8.780000	0.011735
8.800000	0.011837
8.820000	0.011791
8.840000	0.011882
8.860000	0.011362
8.880000	0.010495
8.900000	0.009801
8.920000	0.008958
8.940000	0.007981
8.960000	0.007058
8.980000	0.006151
9.000000	0.004892
9.020000	0.003555
9.040000	0.002312
9.060000	0.000746
9.080000	-0.001100
9.100000	-0.003056
9.120000	-0.004847
9.140000	-0.006575
9.160000	-0.008513
9.180000	-0.010589
9.200000	-0.012589
9.220000	-0.013947
9.240000	-0.014978
9.260000	-0.016167
9.280000	-0.017402
9.300000	-0.018699
9.320000	-0.019844
9.340000	-0.021151
9.360000	-0.022309
9.380000	-0.024176
9.400000	-0.025506
9.420000	-0.027129
9.440000	-0.028191
9.460000	-0.028643
9.480000	-0.030080
9.500000	-0.029954
9.520000	-0.032488
9.540000	-0.031248
9.560000	-0.034192
9.580000	-0.032148
9.600000	-0.034771
9.620000	-0.034090
9.640000	-0.033901
9.660000	-0.037021
9.680000	-0.031252
9.700000	-0.039867
9.720000	-0.026931
9.740000	-0.041246
9.760000	-0.024636
9.780000	-0.040238
9.800000	-0.027669
9.820000	-0.032177
9.840000	-0.037384
9.860000	-0.017744
9.880000	-0.052990
9.900000	0.001594
9.920000	-0.067302
9.940000	0.016046
9.960000	-0.069612
9.980000	0.034977
10.000000	0.288025
10.020000	1.498376
10.040000	4.025671
10.060000	3.762784
10.080000	0.714534
10.100000	2.607185
10.120000	9.430572
10.140000	12.525100
10.160000	20.883132
10.180000	31.341846
10.200000	18.389155
10.220000	-6.054814
10.240000	-9.428400
10.260000	-1.668280
10.280000	-8.194656
10.300000	-20.681834
10.320000	-23.435318
10.340000	-14.200417
10.360000	-9.348321
10.380000	-15.112909
10.400000	-17.393504
10.420000	-17.439411
10.440000	-18.677710
10.460000	-13.778058
10.480000	1.361705
10.500000	5.833530
10.520000	0.095970
10.540000	8.900453
10.560000	18.305217
10.580000	9.124039
10.600000	-0.448866
10.620000	4.733376
10.640000	6.358592
10.660000	6.290286
10.680000	2.010002
10.700000	-11.487143
10.720000	-10.029611
10.740000	-0.002453
10.760000	2.413426
10.780000	-4.575650
10.800000	-7.017491
10.820000	2.909151
10.840000	8.179367
10.860000	5.323469
10.880000	7.099455
10.900000	9.766184
10.920000	2.659099
10.940000	-0.218789
10.960000	2.955585
10.980000	5.362655
11.000000	4.744762
11.020000	-2.612771
11.040000	-6.885580
11.060000	-3.823584
11.080000	1.300606
11.100000	3.064909
11.120000	0.618280
11.140000	-4.660318
11.160000	-1.772585
11.180000	5.756034
11.200000	2.222316
11.220000	-4.885340
11.240000	-8.174502
11.260000	-4.993211
11.280000	0.412282
11.300000	4.231243
11.320000	4.283318
11.340000	0.463643
11.360000	1.866719
11.380000	6.486839
11.400000	6.887877
11.420000	1.942569
11.440000	4.113671
11.460000	6.277387
11.480000	-1.015547
11.500000	-4.893606
11.520000	-6.654900
11.540000	-6.608586
11.560000	-5.068250
11.580000	-3.457632
11.600000	-3.522357
11.620000	-5.025842
11.640000	-2.706270
11.660000	0.672648
11.680000	8.418494
11.700000	13.277916
11.720000	4.696314
11.740000	0.705027
11.760000	5.127841
11.780000	0.761248
11.800000	-2.863683
11.820000	-0.720510
11.840000	-5.357285
11.860000	-6.102366
11.880000	-2.336414
11.900000	-6.536933
11.920000	-5.320976
11.940000	-0.193283
11.960000	-1.686560
11.980000	-4.882530
12.000000	-2.744104
12.020000	3.405743
12.040000	1.550555
12.060000	1.955563
12.080000	5.176265
12.100000	3.681367
12.120000	5.577188
12.140000	5.030939
12.160000	1.527691
12.180000	2.376161
12.200000	1.459905
12.220000	-3.394769
12.240000	-2.467968
12.260000	0.141604
12.280000	-1.127128
12.300000	-3.503693
12.320000	-3.248557
12.340000	1.071582
12.360000	3.479924
12.380000	3.223215
12.400000	0.469166
12.420000	-1.419926
12.440000	1.486242
12.460000	1.545485
12.480000	-4.499673
12.500000	-4.970190
12.520000	-2.407135
12.540000	-5.678779
12.560000	-5.594225
12.580000	-2.048746
12.600000	1.295789
12.620000	5.828598
12.640000	5.440726
12.660000	0.638855
12.680000	0.905135
12.700000	1.628126
12.720000	1.284855
12.740000	3.655866
12.760000	1.508083
12.780000	-0.074342
12.800000	-0.498766
12.820000	-3.609657
12.840000	-5.160643
12.860000	-2.492796
12.880000	3.333219
12.900000	3.006789
12.920000	-3.185924
12.940000	-5.435952
12.960000	-0.753109
12.980000	1.180636
13.000000	-5.546191
13.020000	-7.044359
13.040000	4.342200
13.060000	10.201280
13.080000	5.581423
13.100000	5.355161
13.120000	6.347881
13.140000	6.321595
13.160000	4.980991
13.180000	-0.344872
13.200000	-2.355652
13.220000	-0.094944
13.240000	1.816889
13.260000	2.345021
13.280000	-2.921529
13.300000	-10.785383
13.320000	-5.213332
13.340000	3.121340
13.360000	-2.160470
13.380000	-10.021772
13.400000	-9.709865
13.420000	-2.146673
13.440000	1.422729
13.460000	0.614914
13.480000	3.421512
13.500000	2.981755
13.520000	1.908025
13.540000	7.791229
13.560000	8.875616
13.580000	1.294066
13.600000	-1.023316
13.620000	-0.909112
13.640000	-7.870062
13.660000	-7.232850
13.680000	-0.700018
13.700000	0.134958
13.720000	0.653823
13.740000	-2.680278
13.760000	-3.751936
13.780000	0.369780
13.800000	-2.702535
13.820000	-6.107111
13.840000	-1.412895
13.860000	1.341817
13.880000	0.723188
13.900000	2.405554
13.920000	2.690958
13.940000	-0.624475
13.960000	-5.822062
13.980000	-6.587028
14.000000	1.949166
14.020000	8.470665
14.040000	4.890154
14.060000	6.235505
14.080000	12.200294
14.100000	10.854565
14.120000	3.203492
14.140000	-2.096026
14.160000	2.230236
14.180000	3.233900
14.200000	0.611919
14.220000	-0.069115
14.240000	-2.896598
14.260000	-4.657134
14.280000	-4.173283
14.300000	-4.921949
14.320000	-6.648763
14.340000	-5.997575
14.360000	-4.924882
14.380000	-1.354855
14.400000	-0.716868
14.420000	-2.507108
14.440000	-0.729215
14.460000	2.128945
14.480000	6.697472
14.500000	7.000144
14.520000	4.733895
14.540000	5.207942
14.560000	3.056321
14.580000	-0.458807
14.600000	-2.573880
14.620000	-4.606449
14.640000	0.915806
14.660000	4.904430
14.680000	2.476027
14.700000	6.169514
14.720000	6.293354
14.740000	-0.544532
14.760000	-5.784178
14.780000	-7.302924
14.800000	-6.815988
14.820000	-5.569215
14.840000	-3.226277
14.860000	-7.391290
14.880000	-6.735639
14.900000	6.356735
14.920000	5.957618
14.940000	1.916300
14.960000	6.240716
14.980000	0.719931
15.000000	-3.695348
15.020000	-0.631383
15.040000	2.688928
15.060000	3.952273
15.080000	-0.028555
15.100000	-3.081743
15.120000	-3.143716
15.140000	-10.934954
15.160000	-17.197940
15.180000	-8.021999
15.200000	4.050191
15.220000	10.332733
15.240000	7.807671
15.260000	5.006205
15.280000	7.745084
15.300000	5.261737
15.320000	4.560636
15.340000	9.813528
15.360000	6.804607
15.380000	0.038558
15.400000	-0.606844
15.420000	-3.673005
15.440000	-9.105889
15.460000	-13.698449
15.480000	-14.364142
15.500000	-8.091339
15.520000	-3.080256
15.540000	-2.869196
15.560000	-1.524848
15.580000	9.796894
15.600000	17.127595
15.620000	6.659702
15.640000	0.405468
15.660000	1.646783
15.680000	3.698387
15.700000	6.315891
15.720000	1.772684
15.740000	3.922609
15.760000	1.046800
15.780000	-10.189195
15.800000	-3.503409
15.820000	2.480373
15.840000	-4.886654
15.860000	-2.861426
15.880000	5.332549
15.900000	-2.236432
15.920000	-8.193700
15.940000	-3.162079
15.960000	-1.093928
15.980000	-0.368423
16.000000	1.128857
16.020000	1.977037
16.040000	-0.082522
16.060000	0.838839
16.080000	2.546428
16.100000	3.895538
16.120000	3.768994
16.140000	3.381882
16.160000	6.405749
16.180000	2.331348
16.200000	-3.279269
16.220000	-6.698116
16.240000	-8.006972
16.260000	-7.494474
16.280000	-7.034244
16.300000	-4.494890
16.320000	-2.680256
16.340000	2.039154
16.360000	2.009865
16.380000	-0.197965
16.400000	4.848791
16.420000	4.378899
16.440000	2.803910
16.460000	4.711572
16.480000	7.781342
16.500000	8.690016
16.520000	2.061987
16.540000	1.897011
16.560000	6.877119
16.580000	5.621071
16.600000	-3.473754
16.620000	-7.611329
16.640000	-7.685301
16.660000	-8.220739
16.680000	-1.399852
16.700000	-0.013401
16.720000	-0.222621
16.740000	-0.161418
16.760000	-2.463193
16.780000	-4.409333
16.800000	-1.985490
16.820000	1.826105
16.840000	0.102075
16.860000	2.002151
16.880000	1.006291
16.900000	0.285127
16.920000	-0.817775
16.940000	-0.708569
16.960000	4.038390
16.980000	-1.360039
17.000000	-9.487937
17.020000	-8.828622
17.040000	2.371259
17.060000	9.124682
17.080000	-0.401356
17.100000	-8.619219
17.120000	-2.715351
17.140000	6.690661
17.160000	9.684636
17.180000	7.711854
17.200000	5.404558
17.220000	5.691796
17.240000	4.264290
17.260000	1.005315
17.280000	-1.413932
17.300000	-4.400182
17.320000	-7.814399
17.340000	-4.702040
17.360000	1.085042
17.380000	-1.891432
17.400000	-4.182620
17.420000	-5.437382
17.440000	0.132921
17.460000	5.971785
17.480000	-5.181211
17.500000	-2.119031
17.520000	8.622054
17.540000	3.869201
17.560000	-3.386778
17.580000	-2.802985
17.600000	4.744798
17.620000	5.140333
17.640000	3.478814
17.660000	-3.315047
17.680000	-9.536021
17.700000	-0.590444
17.720000	3.649516
17.740000	-0.746100
17.760000	-2.221666
17.780000	-5.805187
17.800000	-11.162648
17.820000	-6.320016
17.840000	1.055138
17.860000	2.006975
17.880000	2.972632
17.900000	8.582795
17.920000	13.876566
17.940000	16.184742
17.960000	10.898066
17.980000	2.402125
18.000000	5.627092
18.020000	2.915335
18.040000	1.666283
18.060000	7.730997
18.080000	8.011556
18.100000	5.864477
18.120000	4.229020
18.140000	27.002274
18.160000	59.837522
18.180000	68.392415
18.200000	46.589292
18.220000	23.073644
18.240000	10.534903
18.260000	-2.085527
18.280000	6.538618
18.300000	29.111121
18.320000	40.405837
18.340000	-12.759601
18.360000	-119.770126
18.380000	-178.774734
18.400000	-153.507038
18.420000	-66.457142
18.440000	10.339150
18.460000	30.781118
18.480000	3.462646
18.500000	-24.251919
18.520000	0.852577
18.540000	15.083211
18.560000	-51.254357
18.580000	-103.364523
18.600000	-40.368696
18.620000	20.421459
18.640000	2.815125
18.660000	-3.220404
18.680000	-12.115875
18.700000	-49.771923
18.720000	12.625336
18.740000	167.293925
18.760000	180.814275
18.780000	50.546014
18.800000	-14.640226
18.820000	-8.755372
18.840000	-17.407465
18.860000	2.611508
18.880000	54.792307
18.900000	64.314964
18.920000	20.212073
18.940000	-27.513550
18.960000	-36.733907
18.980000	-21.671623
19.000000	-10.194970
19.020000	-21.475481
19.040000	-52.064189
19.060000	-83.500849
19.080000	-62.787062
19.100000	17.514705
19.120000	48.706895
19.140000	31.674979
19.160000	39.763539
19.180000	44.495181
19.200000	16.048679
19.220000	-28.287719
19.240000	-60.078858
19.260000	-49.431064
19.280000	-0.813221
19.300000	25.098414
19.320000	2.933846
19.340000	-20.755048
19.360000	-24.877785
19.380000	-8.267847
19.400000	19.962948
19.420000	38.029678
19.440000	40.121670
19.460000	29.719760
19.480000	19.533263
19.500000	29.415675
19.520000	43.039666
19.540000	11.683258
19.560000	-16.514499
19.580000	-5.401008
19.600000	3.742979
19.620000	4.458230
19.640000	-14.399752
19.660000	-37.693726
19.680000	-36.804148
19.700000	-29.774334
19.720000	-36.913088
19.740000	-27.359527
19.760000	5.475306
19.780000	29.535405
19.800000	43.348628
19.820000	35.873457
19.840000	28.282480
19.860000	23.636178
19.880000	-7.594865
19.900000	-27.784291
