Tiempo(s)	Amplitud(mm)
# npts=18502
# fs=50.0000 Hz
# duracion=370.0200 s

0.000000	0.000002
0.020000	0.000001
0.040000	0.000002
0.060000	0.000002
0.080000	0.000002
0.100000	0.000003
0.120000	0.000004
0.140000	0.000006
0.160000	0.000008
0.180000	0.000010
0.200000	0.000012
0.220000	0.000015
0.240000	0.000018
0.260000	0.000021
0.280000	0.000025
0.300000	0.000029
0.320000	0.000033
0.340000	0.000037
0.360000	0.000041
0.380000	0.000046
0.400000	0.000051
0.420000	0.000056
0.440000	0.000061
0.460000	0.000066
0.480000	0.000071
0.500000	0.000076
0.520000	0.000082
0.540000	0.000087
0.560000	0.000093
0.580000	0.000098
0.600000	0.000104
0.620000	0.000110
0.640000	0.000116
0.660000	0.000122
0.680000	0.000128
0.700000	0.000133
0.720000	0.000140
0.740000	0.000145
0.760000	0.000152
0.780000	0.000158
0.800000	0.000164
0.820000	0.000170
0.840000	0.000176
0.860000	0.000183
0.880000	0.000189
0.900000	0.000195
0.920000	0.000202
0.940000	0.000208
0.960000	0.000215
0.980000	0.000221
1.000000	0.000228
1.020000	0.000234
1.040000	0.000241
1.060000	0.000247
1.080000	0.000254
1.100000	0.000261
1.120000	0.000268
1.140000	0.000274
1.160000	0.000281
1.180000	0.000288
1.200000	0.000295
1.220000	0.000302
1.240000	0.000309
1.260000	0.000316
1.280000	0.000323
1.300000	0.000330
1.320000	0.000337
1.340000	0.000344
1.360000	0.000351
1.380000	0.000358
1.400000	0.000365
1.420000	0.000372
1.440000	0.000380
1.460000	0.000387
1.480000	0.000394
1.500000	0.000402
1.520000	0.000409
1.540000	0.000417
1.560000	0.000424
1.580000	0.000431
1.600000	0.000439
1.620000	0.000446
1.640000	0.000454
1.660000	0.000461
1.680000	0.000469
1.700000	0.000476
1.720000	0.000484
1.740000	0.000491
1.760000	0.000499
1.780000	0.000506
1.800000	0.000514
1.820000	0.000522
1.840000	0.000530
1.860000	0.000537
1.880000	0.000545
1.900000	0.000552
1.920000	0.000559
1.940000	0.000566
1.960000	0.000574
1.980000	0.000582
2.000000	0.000590
2.020000	0.000598
2.040000	0.000606
2.060000	0.000615
2.080000	0.000623
2.100000	0.000631
2.120000	0.000639
2.140000	0.000646
2.160000	0.000654
2.180000	0.000661
2.200000	0.000670
2.220000	0.000678
2.240000	0.000687
2.260000	0.000697
2.280000	0.000708
2.300000	0.000719
2.320000	0.000731
2.340000	0.000742
2.360000	0.000753
2.380000	0.000764
2.400000	0.000774
2.420000	0.000783
2.440000	0.000795
2.460000	0.000806
2.480000	0.000819
2.500000	0.000831
2.520000	0.000844
2.540000	0.000858
2.560000	0.000874
2.580000	0.000889
2.600000	0.000905
2.620000	0.000921
2.640000	0.000935
2.660000	0.000949
2.680000	0.000963
2.700000	0.000974
2.720000	0.000988
2.740000	0.001003
2.760000	0.001020
2.780000	0.001040
2.800000	0.001059
2.820000	0.001078
2.840000	0.001096
2.860000	0.001112
2.880000	0.001127
2.900000	0.001144
2.920000	0.001160
2.940000	0.001175
2.960000	0.001192
2.980000	0.001209
3.000000	0.001226
3.020000	0.001242
3.040000	0.001260
3.060000	0.001278
3.080000	0.001301
3.100000	0.001327
3.120000	0.001355
3.140000	0.001382
3.160000	0.001401
3.180000	0.001411
3.200000	0.001418
3.220000	0.001420
3.240000	0.001422
3.260000	0.001421
3.280000	0.001422
3.300000	0.001430
3.320000	0.001447
3.340000	0.001467
3.360000	0.001482
3.380000	0.001492
3.400000	0.001493
3.420000	0.001494
3.440000	0.001500
3.460000	0.001503
3.480000	0.001501
3.500000	0.001497
3.520000	0.001488
3.540000	0.001473
3.560000	0.001469
3.580000	0.001471
3.600000	0.001469
3.620000	0.001466
3.640000	0.001460
3.660000	0.001451
3.680000	0.001442
3.700000	0.001427
3.720000	0.001399
3.740000	0.001358
3.760000	0.001301
3.780000	0.001243
3.800000	0.001195
3.820000	0.001150
3.840000	0.001113
3.860000	0.001084
3.880000	0.001053
3.900000	0.001020
3.920000	0.000987
3.940000	0.000954
3.960000	0.000919
3.980000	0.000891
4.000000	0.000860
4.020000	0.000808
4.040000	0.000770
4.060000	0.000747
4.080000	0.000727
4.100000	0.000711
4.120000	0.000708
4.140000	0.000745
4.160000	0.000813
4.180000	0.000867
4.200000	0.000885
4.220000	0.000908
4.240000	0.000936
4.260000	0.000957
4.280000	0.000975
4.300000	0.000977
4.320000	0.000991
4.340000	0.001004
4.360000	0.000994
4.380000	0.000988
4.400000	0.001009
4.420000	0.001062
4.440000	0.001132
4.460000	0.001225
4.480000	0.001310
4.500000	0.001342
4.520000	0.001326
4.540000	0.001262
4.560000	0.001182
4.580000	0.001115
4.600000	0.001101
4.620000	0.001168
4.640000	0.001299
4.660000	0.001438
4.680000	0.001507
4.700000	0.001482
4.720000	0.001403
4.740000	0.001368
4.760000	0.001410
4.780000	0.001497
4.800000	0.001584
4.820000	0.001604
4.840000	0.001536
4.860000	0.001473
4.880000	0.001428
4.900000	0.001376
4.920000	0.001388
4.940000	0.001400
4.960000	0.001423
4.980000	0.001480
5.000000	0.001598
5.020000	0.001723
5.040000	0.001753
5.060000	0.001714
5.080000	0.001580
5.100000	0.001492
5.120000	0.001491
5.140000	0.001627
5.160000	0.001887
5.180000	0.002060
5.200000	0.002107
5.220000	0.002057
5.240000	0.002032
5.260000	0.002083
5.280000	0.002260
5.300000	0.002508
5.320000	0.002665
5.340000	0.002781
5.360000	0.002894
5.380000	0.003010
5.400000	0.003136
5.420000	0.003190
5.440000	0.003170
5.460000	0.003169
5.480000	0.003245
5.500000	0.003431
5.520000	0.003757
5.540000	0.004055
5.560000	0.004126
5.580000	0.004015
5.600000	0.003870
5.620000	0.003772
5.640000	0.003702
5.660000	0.003637
5.680000	0.003605
5.700000	0.003564
5.720000	0.003403
5.740000	0.003155
5.760000	0.003027
5.780000	0.003147
5.800000	0.003387
5.820000	0.003487
5.840000	0.003556
5.860000	0.003806
5.880000	0.004120
5.900000	0.004349
5.920000	0.004431
5.940000	0.004399
5.960000	0.004461
5.980000	0.004642
6.000000	0.004858
6.020000	0.005137
6.040000	0.005288
6.060000	0.005426
6.080000	0.005789
6.100000	0.006197
6.120000	0.006456
6.140000	0.006463
6.160000	0.006318
6.180000	0.006253
6.200000	0.006320
6.220000	0.006439
6.240000	0.006544
6.260000	0.006805
6.280000	0.007337
6.300000	0.007673
6.320000	0.007754
6.340000	0.007852
6.360000	0.007911
6.380000	0.007997
6.400000	0.008116
6.420000	0.008199
6.440000	0.008217
6.460000	0.008225
6.480000	0.008275
6.500000	0.008326
6.520000	0.008372
6.540000	0.008327
6.560000	0.008226
6.580000	0.008207
6.600000	0.008437
6.620000	0.008815
6.640000	0.008967
6.660000	0.008944
6.680000	0.008906
6.700000	0.008776
6.720000	0.008612
6.740000	0.008504
6.760000	0.008420
6.780000	0.008310
6.800000	0.008206
6.820000	0.007911
6.840000	0.007427
6.860000	0.006962
6.880000	0.006582
6.900000	0.006301
6.920000	0.006130
6.940000	0.006064
6.960000	0.005933
6.980000	0.005976
7.000000	0.006097
7.020000	0.005723
7.040000	0.005210
7.060000	0.004806
7.080000	0.004329
7.100000	0.004108
7.120000	0.004168
7.140000	0.004355
7.160000	0.004487
7.180000	0.004193
7.200000	0.003584
7.220000	0.003058
7.240000	0.002674
7.260000	0.002244
7.280000	0.001856
7.300000	0.001325
7.320000	0.000503
7.340000	-0.000407
7.360000	-0.001574
7.380000	-0.002712
7.400000	-0.003481
7.420000	-0.003930
7.440000	-0.004024
7.460000	-0.004070
7.480000	-0.004722
7.500000	-0.005833
7.520000	-0.006874
7.540000	-0.007721
7.560000	-0.008257
7.580000	-0.008872
7.600000	-0.009521
7.620000	-0.009960
7.640000	-0.010816
7.660000	-0.012022
7.680000	-0.013275
7.700000	-0.014457
7.720000	-0.015255
7.740000	-0.015708
7.760000	-0.016074
7.780000	-0.016523
7.800000	-0.017057
7.820000	-0.017991
7.840000	-0.019130
7.860000	-0.019989
7.880000	-0.020911
7.900000	-0.021960
7.920000	-0.022601
7.940000	-0.022924
7.960000	-0.022922
7.980000	-0.022213
8.000000	-0.021737
8.020000	-0.021905
8.040000	-0.022044
8.060000	-0.021942
8.080000	-0.021952
8.100000	-0.022154
8.120000	-0.021801
8.140000	-0.021303
8.160000	-0.020865
8.180000	-0.019861
8.200000	-0.018661
8.220000	-0.017424
8.240000	-0.016386
8.260000	-0.015807
8.280000	-0.015270
8.300000	-0.014845
8.320000	-0.014556
8.340000	-0.013883
8.360000	-0.012862
8.380000	-0.011814
8.400000	-0.011062
8.420000	-0.010718
8.440000	-0.010441
8.460000	-0.009616
8.480000	-0.008011
8.500000	-0.006527
8.520000	-0.005270
8.540000	-0.003629
8.560000	-0.002093
8.580000	-0.000754
8.600000	0.000326
8.620000	0.000985
8.640000	0.002025
8.660000	0.003447
8.680000	0.004644
8.700000	0.005486
8.720000	0.006222
8.740000	0.007060
8.760000	0.008024
8.780000	0.008855
8.800000	0.009579
8.820000	0.010729
8.840000	0.011997
8.860000	0.013413
8.880000	0.015288
8.900000	0.016823
8.920000	0.017454
8.940000	0.017325
8.960000	0.017232
8.980000	0.017524
9.000000	0.018285
9.020000	0.019500
9.040000	0.020567
9.060000	0.021738
9.080000	0.022732
9.100000	0.022921
9.120000	0.022654
9.140000	0.022057
9.160000	0.021729
9.180000	0.022183
9.200000	0.022645
9.220000	0.022372
9.240000	0.021441
9.260000	0.019899
9.280000	0.018372
9.300000	0.017486
9.320000	0.016903
9.340000	0.016480
9.360000	0.016148
9.380000	0.016364
9.400000	0.016732
9.420000	0.016910
9.440000	0.017246
9.460000	0.017219
9.480000	0.017361
9.500000	0.017603
9.520000	0.017112
9.540000	0.016501
9.560000	0.016303
9.580000	0.016282
9.600000	0.016311
9.620000	0.016556
9.640000	0.016665
9.660000	0.015945
9.680000	0.014986
9.700000	0.014863
9.720000	0.014782
9.740000	0.014191
9.760000	0.013709
9.780000	0.013106
9.800000	0.012300
9.820000	0.011471
9.840000	0.010607
9.860000	0.009478
9.880000	0.008837
9.900000	0.009337
9.920000	0.009644
9.940000	0.009966
9.960000	0.010559
9.980000	0.011326
10.000000	0.012778
10.020000	0.016247
10.040000	0.022106
10.060000	0.031118
10.080000	0.045410
10.100000	0.067504
10.120000	0.100123
10.140000	0.142052
10.160000	0.194402
10.180000	0.252845
10.200000	0.310480
10.220000	0.361756
10.240000	0.397182
10.260000	0.412522
10.280000	0.417660
10.300000	0.418328
10.320000	0.398935
10.340000	0.351979
10.360000	0.284746
10.380000	0.213468
10.400000	0.114452
10.420000	-0.038531
10.440000	-0.201705
10.460000	-0.315023
10.480000	-0.354642
10.500000	-0.367219
10.520000	-0.375775
10.540000	-0.368699
10.560000	-0.384261
10.580000	-0.488534
10.600000	-0.692849
10.620000	-0.833560
10.640000	-0.743618
10.660000	-0.467729
10.680000	-0.181596
10.700000	-0.032854
10.720000	0.007260
10.740000	0.001758
10.760000	-0.085168
10.780000	-0.183518
10.800000	-0.173177
10.820000	-0.028834
10.840000	0.228997
10.860000	0.457488
10.880000	0.467027
10.900000	0.313192
10.920000	0.146353
10.940000	0.003301
10.960000	-0.068346
10.980000	-0.125759
11.000000	-0.243776
11.020000	-0.407523
11.040000	-0.686773
11.060000	-1.173640
11.080000	-1.715768
11.100000	-1.945535
11.120000	-1.711989
11.140000	-1.072226
11.160000	-0.355858
11.180000	-0.008492
11.200000	0.098601
11.220000	0.251504
11.240000	0.374339
11.260000	0.345220
11.280000	0.151785
11.300000	0.013965
11.320000	0.235264
11.340000	0.643952
11.360000	0.748724
11.380000	0.662436
11.400000	0.960992
11.420000	1.662114
11.440000	2.368811
11.460000	2.748941
11.480000	2.699107
11.500000	2.337193
11.520000	1.595856
11.540000	0.446038
11.560000	-0.587271
11.580000	-0.955698
11.600000	-0.871789
11.620000	-0.804250
11.640000	-0.903378
11.660000	-1.087360
11.680000	-1.049579
11.700000	-0.710957
11.720000	-0.322966
11.740000	0.025330
11.760000	0.287650
11.780000	0.214721
11.800000	-0.273078
11.820000	-0.850687
11.840000	-1.203479
11.860000	-1.119516
11.880000	-0.566164
11.900000	0.087301
11.920000	0.575828
11.940000	0.846787
11.960000	0.758172
11.980000	0.464591
12.000000	0.251217
12.020000	-0.015786
12.040000	-0.280260
12.060000	-0.182333
12.080000	0.239341
12.100000	0.611908
12.120000	0.519529
12.140000	0.102483
12.160000	0.111580
12.180000	0.650099
12.200000	1.055754
12.220000	1.022529
12.240000	0.641510
12.260000	-0.105879
12.280000	-0.989940
12.300000	-1.532334
12.320000	-1.521835
12.340000	-1.074685
12.360000	-0.692360
12.380000	-0.927907
12.400000	-1.514989
12.420000	-1.634715
12.440000	-1.318312
12.460000	-0.957942
12.480000	-0.551791
12.500000	-0.285771
12.520000	-0.105123
12.540000	0.145304
12.560000	0.310530
12.580000	0.550406
12.600000	1.113479
12.620000	1.860204
12.640000	2.447511
12.660000	2.496844
12.680000	2.261588
12.700000	2.095315
12.720000	1.592354
12.740000	0.985136
12.760000	1.065784
12.780000	1.852419
12.800000	2.666641
12.820000	3.067358
12.840000	3.314221
12.860000	3.257642
12.880000	2.307800
12.900000	0.563031
12.920000	-1.350936
12.940000	-2.954090
12.960000	-4.098441
12.980000	-4.638163
13.000000	-4.555471
13.020000	-4.103246
13.040000	-3.304119
13.060000	-2.374538
13.080000	-1.925418
13.100000	-2.006389
13.120000	-2.315840
13.140000	-2.679246
13.160000	-2.895299
13.180000	-3.405762
13.200000	-4.354955
13.220000	-4.682574
13.240000	-3.756467
13.260000	-2.141023
13.280000	-0.671325
13.300000	0.633348
13.320000	2.056351
13.340000	3.564630
13.360000	4.996119
13.380000	6.130181
13.400000	6.782626
13.420000	6.356074
13.440000	4.606513
13.460000	2.401755
13.480000	0.711717
13.500000	0.049788
13.520000	0.247148
13.540000	0.673730
13.560000	0.743223
13.580000	0.292808
13.600000	-0.357985
13.620000	-0.984682
13.640000	-1.084413
13.660000	-0.355132
13.680000	0.459959
13.700000	0.487558
13.720000	-0.455316
13.740000	-1.808361
13.760000	-2.515459
13.780000	-1.894873
13.800000	-0.541021
13.820000	0.367632
13.840000	0.360600
13.860000	-0.106645
13.880000	-0.588025
13.900000	-0.954713
13.920000	-1.108334
13.940000	-1.408245
13.960000	-2.025345
13.980000	-2.438967
14.000000	-2.373962
14.020000	-1.706086
14.040000	-0.383083
14.060000	1.121749
14.080000	2.155141
14.100000	2.488081
14.120000	2.317634
14.140000	1.751127
14.160000	1.130263
14.180000	0.382096
14.200000	-0.621748
14.220000	-1.193865
14.240000	-1.222999
14.260000	-0.665718
14.280000	0.452997
14.300000	1.567649
14.320000	2.438912
14.340000	3.120167
14.360000	3.615095
14.380000	3.517595
14.400000	2.779873
14.420000	1.845877
14.440000	1.178845
14.460000	1.211067
14.480000	1.567818
14.500000	1.590964
14.520000	1.122684
14.540000	0.481367
14.560000	0.232779
14.580000	-0.021923
14.600000	-1.194170
14.620000	-2.924164
14.640000	-4.126788
14.660000	-4.424017
14.680000	-4.146942
14.700000	-3.643557
14.720000	-3.047564
14.740000	-2.197901
14.760000	-1.285237
14.780000	-0.796110
14.800000	-0.552491
14.820000	-0.613645
14.840000	-1.399647
14.860000	-2.341145
14.880000	-2.351711
14.900000	-1.297860
14.920000	0.310029
14.940000	1.724287
14.960000	2.424522
14.980000	2.722521
15.000000	2.932122
15.020000	3.328616
15.040000	3.561622
15.060000	2.842054
15.080000	1.627550
15.100000	0.943564
15.120000	0.877259
15.140000	0.822146
15.160000	0.429539
15.180000	-0.209195
15.200000	-0.669265
15.220000	-0.651704
15.240000	-0.525039
15.260000	-0.820805
15.280000	-1.423130
15.300000	-1.871348
15.320000	-1.666093
15.340000	-0.799050
15.360000	-0.288779
15.380000	-0.714280
15.400000	-1.447704
15.420000	-1.439966
15.440000	-0.466198
15.460000	0.324905
15.480000	0.373699
15.500000	-0.031434
15.520000	-0.956050
15.540000	-1.978340
15.560000	-2.108202
15.580000	-1.027864
15.600000	0.126559
15.620000	0.279876
15.640000	-0.296451
15.660000	-0.917054
15.680000	-1.008138
15.700000	-0.319848
15.720000	0.930331
15.740000	2.146562
15.760000	3.044543
15.780000	3.581842
15.800000	3.219847
15.820000	1.527431
15.840000	-0.861844
15.860000	-2.702811
15.880000	-3.500883
15.900000	-3.785260
15.920000	-4.286729
15.940000	-4.674602
15.960000	-4.021386
15.980000	-2.256690
16.000000	0.211868
16.020000	2.943934
16.040000	5.101569
16.060000	6.162537
16.080000	6.466297
16.100000	6.312033
16.120000	5.919582
16.140000	5.208607
16.160000	3.913809
16.180000	2.377421
16.200000	0.934855
16.220000	-0.399397
16.240000	-1.463615
16.260000	-1.971091
16.280000	-2.230409
16.300000	-2.461531
16.320000	-2.621740
16.340000	-2.910436
16.360000	-3.091478
16.380000	-2.873404
16.400000	-2.122078
16.420000	-1.285827
16.440000	-1.248728
16.460000	-1.844796
16.480000	-2.223592
16.500000	-2.338409
16.520000	-2.969019
16.540000	-4.030390
16.560000	-4.446165
16.580000	-4.146592
16.600000	-3.509603
16.620000	-2.178061
16.640000	-0.000150
16.660000	2.498399
16.680000	4.495779
16.700000	5.851008
16.720000	6.832261
16.740000	7.295722
16.760000	6.805427
16.780000	5.360209
16.800000	3.789126
16.820000	2.289514
16.840000	0.688031
16.860000	-0.491145
16.880000	-0.971853
16.900000	-1.100905
16.920000	-1.492357
16.940000	-2.205314
16.960000	-2.517453
16.980000	-2.271726
17.000000	-2.150194
17.020000	-2.434565
17.040000	-2.483701
17.060000	-1.756176
17.080000	-0.606089
17.100000	0.143377
17.120000	-0.040515
17.140000	-0.911175
17.160000	-1.812854
17.180000	-2.423306
17.200000	-2.830260
17.220000	-3.185714
17.240000	-3.455712
17.260000	-3.140261
17.280000	-2.064261
17.300000	-0.943834
17.320000	-0.225128
17.340000	0.446434
17.360000	1.259123
17.380000	1.794415
17.400000	1.845380
17.420000	1.701665
17.440000	1.655705
17.460000	1.569579
17.480000	1.409374
17.500000	1.562329
17.520000	1.762912
17.540000	1.422738
17.560000	1.020243
17.580000	1.181795
17.600000	1.538013
17.620000	1.804916
17.640000	2.164051
17.660000	2.529590
17.680000	2.767644
17.700000	2.768693
17.720000	2.478608
17.740000	2.385133
17.760000	2.472649
17.780000	1.984717
17.800000	0.972671
17.820000	0.071009
17.840000	-0.859358
17.860000	-1.944867
17.880000	-2.631484
17.900000	-2.765030
17.920000	-2.212660
17.940000	-1.227064
17.960000	-0.380158
17.980000	0.250788
18.000000	0.305956
18.020000	-0.282943
18.040000	-1.176597
18.060000	-1.923972
18.080000	-1.995352
18.100000	-1.453960
18.120000	-0.743459
18.140000	-0.100643
18.160000	0.362885
18.180000	0.216485
18.200000	-0.568844
18.220000	-1.138926
18.240000	-0.933024
18.260000	-0.305679
18.280000	0.270586
18.300000	0.689913
18.320000	0.954583
18.340000	1.230463
18.360000	1.555378
18.380000	1.814408
18.400000	2.458383
18.420000	3.687232
18.440000	4.711332
18.460000	4.940550
18.480000	4.456028
18.500000	3.612608
18.520000	2.640345
18.540000	1.285872
18.560000	-0.457739
18.580000	-1.631350
18.600000	-1.298628
18.620000	-0.111511
18.640000	0.570925
18.660000	0.369481
18.680000	-0.369689
18.700000	-1.005174
18.720000	-1.301215
18.740000	-1.536326
18.760000	-1.815685
18.780000	-2.186792
18.800000	-2.556408
18.820000	-2.764933
18.840000	-2.955621
18.860000	-3.317813
18.880000	-3.782307
18.900000	-4.307309
18.920000	-4.656268
18.940000	-4.350429
18.960000	-3.440566
18.980000	-2.374255
19.000000	-1.528192
19.020000	-0.777755
19.040000	0.305137
19.060000	1.483472
19.080000	2.338733
19.100000	2.827724
19.120000	3.156561
19.140000	3.703419
19.160000	4.055116
19.180000	3.690040
19.200000	2.946895
19.220000	1.939455
19.240000	0.755108
19.260000	-0.084897
19.280000	-0.568950
19.300000	-1.091264
19.320000	-1.575355
19.340000	-2.077750
19.360000	-2.831123
19.380000	-3.370230
19.400000	-3.154205
19.420000	-1.957483
19.440000	0.032701
19.460000	1.884393
19.480000	3.034699
19.500000	3.637551
19.520000	3.559584
19.540000	2.776798
19.560000	1.571229
19.580000	0.039241
19.600000	-1.534420
19.620000	-2.597391
19.640000	-2.792070
19.660000	-2.356236
19.680000	-2.074932
19.700000	-2.039208
19.720000	-1.563787
19.740000	-1.191456
19.760000	-2.118830
19.780000	-3.964156
19.800000	-5.381326
19.820000	-5.740785
19.840000	-4.985418
19.860000	-3.313656
19.880000	-1.593283
19.900000	-0.410886
19.920000	0.195721
19.940000	-0.064391
19.960000	-0.966669
19.980000	-1.883927
20.000000	-2.535079
20.020000	-2.425603
20.040000	-1.110549
20.060000	1.073169
